BWSpec Version=BWSpec 3.26
Rseponse Ratio File Version=1.0
CCode=NLU
Int.Time=135
P_Number=2048
Standard Name=SRM 2241         ( Raman )
Start Pixel=50
End Pixel=2034
Start WN=62
End WN=3010
Standard Coefs Order=5
Coefs_C0=0.13535
Coefs_C1=0.00021658
Coefs_C2=0
Coefs_C3=1.8936E-10
Coefs_C4=-9.837E-14
Coefs_C5=1.2414E-17
Pixel   ;  Ratio
0;201.0428184;201.0428721
1;201.7709142;201.7709681
2;335.851019;344.2473865
3;321.3795761;314.0755787
4;513.6560516;495.311325
5;235.8994559;231.9678603
6;38.90636917;38.79830629
7;33.53270461;33.53271356
8;33.25276858;33.1743511
9;40.56074569;40.56075653
10;29.4476651;29.50902229
11;27.76071202;27.76071944
12;29.10737473;29.10738251
13;28.4527143;28.39626809
14;25.92200499;25.92201191
15;22.20314515;22.2374152
16;17.37844685;17.37845149
17;9.869300438;9.869303075
18;3.687146393;3.687147378
19;1.46277575;1.462922653
20;1.187774234;1.187774552
21;1.545153741;1.545154154
22;3.05689815;3.056898967
23;9.103002487;9.103004919
24;17.10870832;17.10871289
25;19.57847818;19.60424458
26;24.91345396;24.91346062
27;24.46478195;24.50476363
28;25.63158409;25.5879998
29;27.69643857;27.74735856
30;27.48342991;27.43364842
31;25.02829242;24.98713414
32;21.55724318;21.52680085
33;25.95885095;26.0030056
34;20.64407991;20.616338
35;22.89782212;22.89782824
36;22.2743427;22.30653702
37;26.60635993;26.60636704
38;21.60456667;21.57456609
39;18.66163636;18.63931881
40;13.93159648;13.9316002
41;11.8698252;11.87882067
42;7.935837974;7.935840094
43;5.018329374;5.018330715
44;3.329777007;3.330478608
45;2.239734695;2.239735294
46;1.656168146;1.655996358
47;1.340231806;1.340232164
48;1.13363888;1.133719401
49;0.995143014;0.995204907
50;0.900274914;0.900325438
51;0.823736122;0.823736342
52;0.749061259;0.749061459
53;0.705380495;0.705380683
54;0.654878471;0.654904934
55;0.622178495;0.622202318
56;0.580164822;0.580164977
57;0.565737402;0.565737553
58;0.538811792;0.538794353
59;0.524177393;0.524177533
60;0.509786223;0.509786359
61;0.50289456;0.502894694
62;0.498565976;0.49856611
63;0.491941968;0.491956543
64;0.490561016;0.490575468
65;0.489423783;0.489438126
66;0.484339554;0.484339683
67;0.483339237;0.483339366
68;0.486643316;0.486657376
69;0.48070544;0.480692016
70;0.481863631;0.48186376
71;0.479068105;0.479068233
72;0.48572436;0.485738208
73;0.470855505;0.470855631
74;0.482235177;0.482235306
75;0.475970078;0.475970205
76;0.480677182;0.48067731
77;0.475644535;0.475631695
78;0.480690668;0.480704004
79;0.473186071;0.473173436
80;0.473031264;0.47303139
81;0.478145159;0.478145287
82;0.468248978;0.468249103
83;0.463905221;0.463917474
84;0.46254565;0.462557797
85;0.46076193;0.460762053
86;0.464074105;0.464086265
87;0.461739205;0.461739328
88;0.458259678;0.4582598
89;0.461105888;0.461106011
90;0.457809327;0.457821033
91;0.457709218;0.457697794
92;0.46100836;0.461008483
93;0.458480003;0.458468604
94;0.461108763;0.46112051
95;0.463309299;0.463321125
96;0.456769054;0.456769176
97;0.456488623;0.456500043
98;0.455223114;0.455223235
99;0.460213814;0.460225358
100;0.451911776;0.451922879
101;0.456847973;0.456836902
102;0.456688662;0.456688784
103;0.457626;0.456298365
104;0.457477;0.464198022
105;0.461597;0.462686063
106;0.46281;0.461914664
107;0.464591;0.460143512
108;0.466064;0.464901532
109;0.467526;0.47455455
110;0.46571;0.467099441
111;0.46611;0.467593657
112;0.469191;0.471142124
113;0.472634;0.472629747
114;0.474403;0.47175708
115;0.472853;0.481385024
116;0.474144;0.480987859
117;0.474662;0.475150686
118;0.474031;0.470072721
119;0.47391;0.475322061
120;0.473747;0.47353875
121;0.473834;0.47311864
122;0.472706;0.470245677
123;0.469732;0.466673447
124;0.469068;0.469537713
125;0.467979;0.464778978
126;0.465759;0.462061746
127;0.463144;0.461194197
128;0.460297;0.460018758
129;0.459198;0.452876452
130;0.45764;0.456029073
131;0.455816;0.452459475
132;0.454614;0.452659709
133;0.453837;0.448120599
134;0.451102;0.449459132
135;0.450645;0.446948107
136;0.448417;0.447984245
137;0.445908;0.447141309
138;0.44432;0.442941553
139;0.442639;0.442764327
140;0.44294;0.440232266
141;0.442834;0.436121287
142;0.441122;0.443646191
143;0.442227;0.441144428
144;0.441679;0.440146206
145;0.444674;0.444720886
146;0.444004;0.44172525
147;0.446277;0.447714287
148;0.445495;0.448739071
149;0.446693;0.449918066
150;0.447647;0.442103987
151;0.450658;0.449013082
152;0.449135;0.451773451
153;0.449721;0.453397469
154;0.450209;0.447419977
155;0.450571;0.450715933
156;0.453536;0.453299516
157;0.454762;0.458478483
158;0.455771;0.45270563
159;0.45622;0.453767864
160;0.457832;0.461768749
161;0.458469;0.453203561
162;0.460562;0.458304476
163;0.461393;0.456236055
164;0.461678;0.457605958
165;0.462923;0.465285438
166;0.462572;0.457700334
167;0.462894;0.461137267
168;0.461868;0.457611598
169;0.461034;0.459205226
170;0.458225;0.455715507
171;0.455976;0.45496806
172;0.452711;0.450247164
173;0.45078;0.452235973
174;0.447746;0.447443777
175;0.444848;0.447341312
176;0.442209;0.43660562
177;0.438562;0.441707896
178;0.436422;0.433938871
179;0.435977;0.437631573
180;0.43393;0.432217957
181;0.432416;0.435340414
182;0.429333;0.431926981
183;0.428223;0.430106532
184;0.426447;0.432098429
185;0.426389;0.432056805
186;0.426455;0.428741128
187;0.428198;0.433445445
188;0.429217;0.434067651
189;0.432013;0.435160047
190;0.433659;0.433411142
191;0.438555;0.441563758
192;0.438968;0.445202588
193;0.441663;0.445257793
194;0.4447;0.445566231
195;0.44473;0.451189983
196;0.447632;0.453892463
197;0.449164;0.451747259
198;0.450053;0.452258188
199;0.450366;0.45521597
200;0.448486;0.456212709
201;0.447703;0.451475395
202;0.447002;0.451446335
203;0.446516;0.450140587
204;0.443816;0.444663414
205;0.443695;0.445309012
206;0.440336;0.443937297
207;0.437097;0.439709918
208;0.435148;0.433252601
209;0.430913;0.433478202
210;0.42903;0.429714361
211;0.425422;0.429003086
212;0.4223;0.427335264
213;0.421966;0.420195909
214;0.419688;0.422664385
215;0.419634;0.418764221
216;0.417134;0.416063346
217;0.418287;0.415584446
218;0.417136;0.417463372
219;0.417752;0.415519907
220;0.417418;0.419256538
221;0.419845;0.422208681
222;0.419704;0.418129288
223;0.420837;0.424826879
224;0.420833;0.427583061
225;0.424203;0.427961885
226;0.426404;0.43135296
227;0.430508;0.430597202
228;0.433056;0.437416662
229;0.434555;0.434417974
230;0.436143;0.435811137
231;0.437898;0.439021905
232;0.437539;0.440055965
233;0.437716;0.440328058
234;0.436956;0.433260403
235;0.438457;0.437191899
236;0.437516;0.439796868
237;0.437213;0.439482296
238;0.435986;0.432813774
239;0.434796;0.431296028
240;0.433906;0.433841464
241;0.430084;0.427320699
242;0.428668;0.426128789
243;0.427314;0.422705124
244;0.423305;0.419049423
245;0.421676;0.42296913
246;0.41944;0.416066471
247;0.418621;0.416400043
248;0.417762;0.415844067
249;0.417102;0.414156871
250;0.414403;0.411812884
251;0.413743;0.411825983
252;0.413227;0.411652941
253;0.413895;0.41278196
254;0.414647;0.411227107
255;0.415524;0.412776286
256;0.415975;0.413305412
257;0.418773;0.420701054
258;0.421249;0.421723495
259;0.423647;0.425475484
260;0.42517;0.424020713
261;0.430083;0.427147186
262;0.431768;0.428698397
263;0.434338;0.43879327
264;0.438075;0.435011239
265;0.440518;0.435411594
266;0.440243;0.433492045
267;0.441668;0.435915464
268;0.444926;0.44116055
269;0.444318;0.441422174
270;0.445146;0.438477846
271;0.445336;0.436486426
272;0.446763;0.439038222
273;0.447057;0.440720704
274;0.445442;0.437954005
275;0.443291;0.436831627
276;0.443119;0.434242412
277;0.440043;0.434886678
278;0.439793;0.431794373
279;0.436705;0.429335095
280;0.432697;0.428319883
281;0.431285;0.423382613
282;0.428097;0.418979254
283;0.426431;0.422118904
284;0.422602;0.417145524
285;0.421703;0.413324891
286;0.418747;0.412985108
287;0.417614;0.411954347
288;0.417595;0.413357744
289;0.415248;0.412112755
290;0.414107;0.412153257
291;0.413323;0.409393964
292;0.413027;0.409634368
293;0.412441;0.409683543
294;0.411971;0.412497697
295;0.413558;0.411080616
296;0.414409;0.414140982
297;0.416197;0.415365587
298;0.419327;0.42003369
299;0.419856;0.422669655
300;0.424027;0.42581935
301;0.426261;0.427526971
302;0.429686;0.434112232
303;0.43464;0.434581505
304;0.438037;0.436819757
305;0.439073;0.441557551
306;0.439791;0.439063793
307;0.440296;0.439458495
308;0.440782;0.440306441
309;0.441958;0.441559304
310;0.441069;0.439667056
311;0.440497;0.43651787
312;0.438045;0.438222751
313;0.43659;0.438373455
314;0.432964;0.435294167
315;0.431463;0.433158712
316;0.429187;0.432494446
317;0.428364;0.424619268
318;0.427251;0.428834387
319;0.425465;0.425704012
320;0.423745;0.424769015
321;0.423261;0.420847974
322;0.420835;0.419740036
323;0.418417;0.419239657
324;0.417426;0.417253508
325;0.415582;0.414047515
326;0.414789;0.41321666
327;0.412437;0.412245599
328;0.412099;0.413281852
329;0.411811;0.409176868
330;0.409182;0.409786014
331;0.40927;0.408294344
332;0.407212;0.406189537
333;0.408142;0.41019274
334;0.407939;0.412006946
335;0.407189;0.409934757
336;0.408326;0.409485419
337;0.408044;0.41236206
338;0.409104;0.413564695
339;0.410932;0.421197709
340;0.411286;0.420707314
341;0.413969;0.422054643
342;0.417464;0.422973829
343;0.419678;0.425555473
344;0.420237;0.427806667
345;0.425104;0.430672623
346;0.428058;0.434987053
347;0.431978;0.435851074
348;0.433364;0.440797012
349;0.437051;0.441461697
350;0.437721;0.441686689
351;0.440043;0.439738939
352;0.440775;0.44739371
353;0.443885;0.441650533
354;0.443198;0.442659994
355;0.440693;0.438083406
356;0.440767;0.442196709
357;0.438715;0.436179888
358;0.436514;0.439344232
359;0.435036;0.429559508
360;0.432597;0.432262171
361;0.428537;0.423516475
362;0.425301;0.423902016
363;0.425063;0.423344827
364;0.424219;0.42465273
365;0.422559;0.424758665
366;0.420832;0.41728418
367;0.421527;0.419869305
368;0.41968;0.420287448
369;0.418241;0.41827004
370;0.414945;0.41627138
371;0.411339;0.412826336
372;0.411312;0.412984766
373;0.409886;0.411119274
374;0.409747;0.411071579
375;0.40889;0.41091106
376;0.40934;0.412703007
377;0.410119;0.407688446
378;0.409917;0.412066133
379;0.409534;0.412267927
380;0.409706;0.413314676
381;0.410902;0.413108099
382;0.410845;0.412676812
383;0.411153;0.417457118
384;0.412002;0.413592938
385;0.414759;0.419234617
386;0.417267;0.42206996
387;0.420398;0.424695313
388;0.422429;0.429736723
389;0.428107;0.435251115
390;0.428535;0.436146742
391;0.431666;0.43692902
392;0.434874;0.441320627
393;0.437495;0.440936768
394;0.441389;0.448997259
395;0.445277;0.447287997
396;0.445267;0.444426157
397;0.446052;0.447810679
398;0.44697;0.449829346
399;0.445587;0.444355895
400;0.444786;0.441636582
401;0.44424;0.443508672
402;0.442759;0.442464297
403;0.440079;0.437126307
404;0.439576;0.436150446
405;0.436587;0.431076174
406;0.432523;0.431840814
407;0.429929;0.429299429
408;0.426039;0.42585281
409;0.422472;0.425616811
410;0.420806;0.419257417
411;0.419209;0.420646875
412;0.417722;0.417993127
413;0.418132;0.417977122
414;0.419145;0.420876504
415;0.420045;0.42086536
416;0.419239;0.420790947
417;0.421282;0.4251315
418;0.421843;0.422384848
419;0.42413;0.42517191
420;0.425505;0.428418331
421;0.425929;0.430265814
422;0.427786;0.431684068
423;0.431616;0.430170024
424;0.435342;0.436290769
425;0.437616;0.438931466
426;0.439858;0.443042997
427;0.441743;0.445924498
428;0.442813;0.444240476
429;0.444196;0.445418612
430;0.446028;0.447705674
431;0.447569;0.448286012
432;0.449441;0.452725978
433;0.451699;0.454142704
434;0.453389;0.455242592
435;0.454356;0.45804165
436;0.45677;0.458783424
437;0.458082;0.459494046
438;0.459405;0.458449402
439;0.461249;0.461083978
440;0.459607;0.45823549
441;0.459508;0.452894641
442;0.457023;0.45426381
443;0.458701;0.454925027
444;0.457676;0.455891358
445;0.456607;0.449830496
446;0.453978;0.451040646
447;0.451297;0.450834375
448;0.450671;0.448206597
449;0.449796;0.444218843
450;0.449367;0.445067688
451;0.446692;0.445869194
452;0.444138;0.440338391
453;0.439544;0.439219529
454;0.439748;0.437467105
455;0.438315;0.435372267
456;0.435969;0.434946594
457;0.434665;0.428488735
458;0.433903;0.435509845
459;0.435056;0.434548558
460;0.432893;0.430935043
461;0.432372;0.427776298
462;0.430787;0.432227162
463;0.431172;0.430428763
464;0.43054;0.432230991
465;0.431213;0.434343454
466;0.431921;0.434564365
467;0.432716;0.433654871
468;0.433332;0.435928209
469;0.434323;0.435527867
470;0.437436;0.437827755
471;0.441621;0.4415442
472;0.443579;0.44507146
473;0.445237;0.448056077
474;0.444391;0.4487404
475;0.44704;0.450218374
476;0.445905;0.449122602
477;0.449953;0.45329257
478;0.451499;0.456519088
479;0.454845;0.45831339
480;0.457471;0.457871973
481;0.458065;0.465803637
482;0.460038;0.462913501
483;0.464234;0.47072113
484;0.467984;0.469917003
485;0.470152;0.47512498
486;0.473278;0.474250936
487;0.476291;0.475210854
488;0.478449;0.478109471
489;0.477516;0.477994613
490;0.479426;0.479753039
491;0.480025;0.479388794
492;0.47728;0.479705009
493;0.476096;0.472710568
494;0.475303;0.472781069
495;0.472173;0.469966955
496;0.472289;0.466249445
497;0.470456;0.466677943
498;0.469183;0.462994346
499;0.467273;0.463820726
500;0.463756;0.458982158
501;0.4625;0.457569884
502;0.457573;0.457334862
503;0.456346;0.452139042
504;0.454681;0.448904371
505;0.453831;0.451277446
506;0.450702;0.448331717
507;0.448287;0.445504147
508;0.443865;0.441449562
509;0.443308;0.441822413
510;0.440464;0.438204473
511;0.438677;0.435034075
512;0.436713;0.433462354
513;0.437025;0.437683647
514;0.435252;0.434150844
515;0.435626;0.435488595
516;0.436033;0.435219029
517;0.437763;0.43625644
518;0.436464;0.440483013
519;0.436198;0.440506472
520;0.43756;0.440299461
521;0.438722;0.446115629
522;0.441394;0.446198169
523;0.446208;0.449930761
524;0.44796;0.454470222
525;0.45103;0.454080881
526;0.453654;0.459728035
527;0.457917;0.467332599
528;0.45975;0.465843968
529;0.46194;0.468520114
530;0.464708;0.473856539
531;0.468287;0.471034882
532;0.470785;0.475840355
533;0.474248;0.478558885
534;0.477014;0.479500445
535;0.480351;0.484295064
536;0.480122;0.484217561
537;0.484162;0.487793572
538;0.48379;0.487690307
539;0.483931;0.484799283
540;0.485922;0.48240092
541;0.484983;0.480091356
542;0.4835;0.482544899
543;0.483749;0.480779608
544;0.481306;0.478007156
545;0.478104;0.472435511
546;0.47811;0.475496955
547;0.476401;0.47425407
548;0.474835;0.465580014
549;0.472065;0.467470726
550;0.468578;0.469210763
551;0.466579;0.463885836
552;0.46416;0.462174949
553;0.463601;0.461164404
554;0.458417;0.458269784
555;0.457777;0.455736628
556;0.455059;0.454308727
557;0.452271;0.448266688
558;0.449804;0.452681991
559;0.4493;0.449433317
560;0.447429;0.446969578
561;0.446479;0.447446647
562;0.446412;0.44981848
563;0.446632;0.45227232
564;0.445011;0.452508052
565;0.445588;0.449932084
566;0.447091;0.452190702
567;0.447484;0.45182528
568;0.452586;0.46160457
569;0.454743;0.464186426
570;0.456103;0.46395982
571;0.460825;0.465651049
572;0.464008;0.470993511
573;0.465914;0.46798128
574;0.466596;0.47057781
575;0.46831;0.473402733
576;0.469941;0.474134101
577;0.471624;0.474414024
578;0.470895;0.472742039
579;0.471403;0.472695748
580;0.473519;0.476102114
581;0.479289;0.482167407
582;0.486076;0.484102951
583;0.489863;0.489178554
584;0.493497;0.492637435
585;0.496742;0.495591772
586;0.498016;0.498477789
587;0.500149;0.49919603
588;0.499239;0.498969947
589;0.500765;0.499422809
590;0.50001;0.496057817
591;0.50112;0.496852908
592;0.499069;0.494381778
593;0.498492;0.494033003
594;0.496793;0.489635267
595;0.495252;0.487881511
596;0.495458;0.485546224
597;0.492879;0.488151667
598;0.490916;0.485803602
599;0.489506;0.483990336
600;0.487866;0.47749452
601;0.485831;0.480918419
602;0.485488;0.481858326
603;0.482734;0.474986013
604;0.481486;0.472549292
605;0.48056;0.4791737
606;0.478363;0.47288193
607;0.476151;0.473986404
608;0.476416;0.473270974
609;0.475841;0.474003067
610;0.474026;0.474628197
611;0.473316;0.473643331
612;0.47154;0.465855396
613;0.474133;0.469600593
614;0.473357;0.469440082
615;0.475193;0.473632204
616;0.475207;0.471033149
617;0.475484;0.475736789
618;0.476313;0.474513296
619;0.476954;0.476419984
620;0.476689;0.477555425
621;0.479391;0.480286752
622;0.482639;0.483141427
623;0.485015;0.484898909
624;0.485523;0.485034944
625;0.488611;0.488393638
626;0.490121;0.487219431
627;0.491488;0.492572864
628;0.494197;0.493461019
629;0.49798;0.495941564
630;0.502136;0.504235755
631;0.507985;0.509440515
632;0.512495;0.50982536
633;0.516746;0.51660438
634;0.516211;0.520245667
635;0.520957;0.519516042
636;0.521532;0.522798933
637;0.52728;0.523372607
638;0.527847;0.523571444
639;0.528503;0.526371007
640;0.531878;0.527322739
641;0.531839;0.527711783
642;0.532257;0.526070828
643;0.532471;0.528371822
644;0.530739;0.522900401
645;0.530271;0.522142536
646;0.52882;0.521379758
647;0.529469;0.522405615
648;0.529343;0.524189169
649;0.530265;0.52279918
650;0.530729;0.516083915
651;0.524748;0.516184055
652;0.521222;0.506850177
653;0.51623;0.505469311
654;0.514118;0.504291101
655;0.513327;0.499997816
656;0.510894;0.499221114
657;0.510216;0.499278721
658;0.506741;0.494762803
659;0.505837;0.495332804
660;0.503459;0.490083296
661;0.500763;0.494793635
662;0.500967;0.49174193
663;0.49833;0.492714991
664;0.498219;0.487978743
665;0.497421;0.489905958
666;0.496358;0.48708953
667;0.495727;0.494042735
668;0.495651;0.488330617
669;0.494317;0.487778907
670;0.494415;0.490468307
671;0.495587;0.489590437
672;0.495134;0.486297847
673;0.495637;0.489120283
674;0.494922;0.492385385
675;0.49386;0.490392584
676;0.495395;0.489894118
677;0.494409;0.491432458
678;0.494705;0.490907858
679;0.495698;0.493407276
680;0.496878;0.492445797
681;0.498109;0.49767875
682;0.499806;0.498321216
683;0.499996;0.496673877
684;0.501263;0.497864028
685;0.503254;0.499642946
686;0.501236;0.499175782
687;0.503564;0.498289764
688;0.50733;0.501531911
689;0.507841;0.509014156
690;0.508551;0.50576507
691;0.50947;0.510697425
692;0.512387;0.508460065
693;0.516316;0.509934287
694;0.515363;0.514203782
695;0.519052;0.512726308
696;0.519366;0.516871865
697;0.519043;0.518219173
698;0.519147;0.520837106
699;0.522111;0.523465378
700;0.524135;0.523785436
701;0.528639;0.524693499
702;0.528955;0.526838876
703;0.53177;0.531135172
704;0.535212;0.531074531
705;0.539287;0.537672253
706;0.544865;0.538804922
707;0.54616;0.54448488
708;0.549494;0.54517235
709;0.551152;0.548917705
710;0.551688;0.549608133
711;0.554447;0.549183998
712;0.557109;0.554942987
713;0.556259;0.555007104
714;0.556191;0.555632325
715;0.561572;0.559937499
716;0.562856;0.55513967
717;0.562313;0.562376118
718;0.564162;0.563370231
719;0.566047;0.561864015
720;0.566913;0.560672886
721;0.565453;0.561756866
722;0.569785;0.565520272
723;0.569712;0.565054566
724;0.569481;0.562564517
725;0.569191;0.561591005
726;0.570549;0.566488811
727;0.570257;0.563709202
728;0.568183;0.565300837
729;0.570629;0.559116109
730;0.568535;0.558777607
731;0.565446;0.559706075
732;0.568184;0.559673538
733;0.56586;0.562589102
734;0.565596;0.554835198
735;0.561598;0.55483724
736;0.561672;0.553874245
737;0.55911;0.555976936
738;0.557737;0.554945043
739;0.557953;0.5551238
740;0.557753;0.554405799
741;0.558154;0.552986584
742;0.554534;0.551145904
743;0.555873;0.549121471
744;0.554855;0.550588129
745;0.555457;0.55176494
746;0.552074;0.548481204
747;0.5499;0.548208534
748;0.547135;0.55049853
749;0.546424;0.549071464
750;0.54623;0.551424918
751;0.547682;0.548848875
752;0.545022;0.543907493
753;0.54164;0.545858134
754;0.538241;0.541020604
755;0.538741;0.543686406
756;0.53831;0.546017006
757;0.538522;0.546503089
758;0.539745;0.547929986
759;0.542308;0.548905324
760;0.540954;0.546188315
761;0.541694;0.55204329
762;0.541098;0.552177266
763;0.542865;0.556401091
764;0.54351;0.553306658
765;0.544327;0.552002533
766;0.545369;0.554957496
767;0.54708;0.55831989
768;0.548589;0.560884683
769;0.54929;0.557634581
770;0.550702;0.562995114
771;0.551365;0.556700063
772;0.552958;0.565929373
773;0.55383;0.56556339
774;0.554955;0.565495593
775;0.557211;0.571654775
776;0.559722;0.567591406
777;0.561354;0.573340024
778;0.562369;0.577374105
779;0.56283;0.578966751
780;0.566727;0.584576651
781;0.571024;0.590573167
782;0.571688;0.584341476
783;0.573008;0.590468362
784;0.577935;0.589731197
785;0.577395;0.5883219
786;0.579409;0.595416445
787;0.581132;0.597824065
788;0.585471;0.596705647
789;0.587245;0.603052737
790;0.588735;0.603483561
791;0.591138;0.608420359
792;0.594372;0.60839792
793;0.597034;0.609280201
794;0.598623;0.612334504
795;0.600236;0.613977813
796;0.600568;0.611567659
797;0.598666;0.614320783
798;0.60059;0.611912473
799;0.60139;0.610735007
800;0.605871;0.617448935
801;0.609568;0.618776477
802;0.611897;0.616989467
803;0.617215;0.617433354
804;0.615448;0.623992119
805;0.616648;0.624086952
806;0.619074;0.622920141
807;0.620307;0.622841496
808;0.619751;0.624259214
809;0.62041;0.62721049
810;0.621752;0.618393334
811;0.624057;0.622331109
812;0.620935;0.621843477
813;0.622007;0.626289673
814;0.621326;0.623424667
815;0.622287;0.622462427
816;0.622;0.624573405
817;0.62098;0.619480235
818;0.620418;0.617157584
819;0.61891;0.614971668
820;0.614826;0.612093588
821;0.616245;0.614931865
822;0.61845;0.616159516
823;0.61667;0.612638765
824;0.616682;0.616749367
825;0.617756;0.615427542
826;0.61688;0.612489804
827;0.613814;0.616707919
828;0.618227;0.614585099
829;0.61507;0.613289342
830;0.615036;0.615362102
831;0.614908;0.61435129
832;0.614335;0.615518184
833;0.614541;0.614784645
834;0.615098;0.616082848
835;0.617729;0.614264079
836;0.616688;0.616018061
837;0.616292;0.613663588
838;0.614727;0.615859737
839;0.612358;0.614048732
840;0.611905;0.615333424
841;0.614121;0.609898489
842;0.612819;0.614321784
843;0.614296;0.616385315
844;0.615872;0.618919201
845;0.615134;0.620271366
846;0.618639;0.622277471
847;0.61963;0.625543075
848;0.619616;0.624301318
849;0.62248;0.626907052
850;0.623005;0.6307756
851;0.627662;0.636067827
852;0.625526;0.63502233
853;0.630405;0.634804159
854;0.631817;0.636878242
855;0.633844;0.641816273
856;0.634813;0.644955748
857;0.634436;0.638369369
858;0.639771;0.642984115
859;0.640209;0.647998519
860;0.642107;0.648806837
861;0.644161;0.649714874
862;0.64734;0.654607296
863;0.651571;0.652591586
864;0.650502;0.657479001
865;0.651114;0.657828955
866;0.659166;0.657996703
867;0.659743;0.666047507
868;0.664861;0.666209355
869;0.663172;0.664706563
870;0.665795;0.665836777
871;0.668602;0.66898899
872;0.672226;0.673152394
873;0.673015;0.672131064
874;0.675747;0.67016897
875;0.676421;0.675145613
876;0.677147;0.672076126
877;0.676451;0.671177676
878;0.676224;0.674277693
879;0.677801;0.676925932
880;0.678749;0.672609687
881;0.676465;0.670110249
882;0.675192;0.673209941
883;0.673768;0.669866056
884;0.674232;0.666036766
885;0.674196;0.66918384
886;0.673541;0.664134801
887;0.672147;0.665166918
888;0.670726;0.664851131
889;0.669296;0.660943508
890;0.670327;0.663399361
891;0.669916;0.662985353
892;0.668912;0.664445537
893;0.667478;0.65973539
894;0.666457;0.664442772
895;0.668363;0.66085958
896;0.666357;0.661459445
897;0.669268;0.662559136
898;0.666498;0.665831187
899;0.668834;0.659832962
900;0.664448;0.655372121
901;0.662076;0.661971437
902;0.666779;0.664977507
903;0.66528;0.660288671
904;0.662471;0.667084575
905;0.660699;0.666906081
906;0.664807;0.662961499
907;0.664208;0.66804682
908;0.662729;0.665779907
909;0.66392;0.670962427
910;0.662326;0.667547433
911;0.665586;0.664747138
912;0.66416;0.668476629
913;0.667738;0.671485331
914;0.668865;0.672050248
915;0.668334;0.674706242
916;0.673166;0.678980342
917;0.671716;0.679134045
918;0.672397;0.680044377
919;0.677415;0.677496606
920;0.677225;0.686672085
921;0.678505;0.686480085
922;0.682014;0.687373771
923;0.684461;0.694126873
924;0.688405;0.70269173
925;0.689437;0.697215125
926;0.689646;0.698120706
927;0.685145;0.697357089
928;0.688262;0.700221396
929;0.687715;0.695004781
930;0.687129;0.694428685
931;0.688997;0.69384215
932;0.692726;0.695586427
933;0.693057;0.703403877
934;0.695468;0.703980103
935;0.697249;0.704507002
936;0.695406;0.707714813
937;0.698639;0.709541717
938;0.701399;0.716169538
939;0.704529;0.714664723
940;0.703356;0.717678212
941;0.70409;0.717616887
942;0.707952;0.719977608
943;0.708871;0.718330816
944;0.710531;0.719457549
945;0.713896;0.722907605
946;0.71242;0.722647782
947;0.715542;0.725251826
948;0.715499;0.724949185
949;0.718145;0.72844461
950;0.722658;0.732083195
951;0.721808;0.735581445
952;0.725393;0.735193976
953;0.728741;0.74017169
954;0.734153;0.736161607
955;0.734825;0.741101697
956;0.736201;0.744805536
957;0.736453;0.744903332
958;0.741812;0.745133222
959;0.744604;0.742316695
960;0.746512;0.746162024
961;0.744228;0.747094823
962;0.745838;0.746747657
963;0.752105;0.754865718
964;0.752087;0.752029508
965;0.756252;0.760531824
966;0.757598;0.764290345
967;0.759791;0.763424497
968;0.760006;0.766502949
969;0.763131;0.766744333
970;0.759649;0.764981979
971;0.762189;0.762320495
972;0.76395;0.76822969
973;0.771504;0.771649356
974;0.776279;0.773591488
975;0.77638;0.773020599
976;0.782284;0.777364593
977;0.78163;0.78565686
978;0.782687;0.781172955
979;0.787815;0.781458486
980;0.791661;0.786846344
981;0.794368;0.79068071
982;0.792428;0.789526036
983;0.793977;0.787764333
984;0.79442;0.78631664
985;0.798846;0.787450748
986;0.799343;0.7901154
987;0.799753;0.797996363
988;0.796374;0.798821332
989;0.803556;0.797666838
990;0.804997;0.795232299
991;0.806057;0.799264879
992;0.804319;0.797857251
993;0.804598;0.795895983
994;0.808507;0.807727921
995;0.806015;0.806480654
996;0.806474;0.804307071
997;0.807764;0.797522137
998;0.809004;0.801874602
999;0.80865;0.806011219
1000;0.809239;0.801446282
1001;0.811048;0.798629983
1002;0.811676;0.804840861
1003;0.809104;0.799118528
1004;0.809687;0.80307441
1005;0.809347;0.805714793
1006;0.81225;0.803763121
1007;0.810765;0.805088133
1008;0.811767;0.807896203
1009;0.811804;0.808251927
1010;0.811723;0.807932295
1011;0.811133;0.797574626
1012;0.809124;0.804941676
1013;0.815485;0.801908958
1014;0.816041;0.807964219
1015;0.815449;0.807970062
1016;0.820856;0.807826055
1017;0.818192;0.810638487
1018;0.817529;0.806823538
1019;0.816493;0.810475502
1020;0.815236;0.812919054
1021;0.817852;0.809325469
1022;0.822556;0.810173516
1023;0.819808;0.810304991
1024;0.819566;0.807481018
1025;0.818113;0.80643065
1026;0.815404;0.813996857
1027;0.816265;0.813598051
1028;0.818071;0.810857931
1029;0.820605;0.809603363
1030;0.821821;0.812491886
1031;0.820984;0.805041529
1032;0.820961;0.809266005
1033;0.822149;0.812321607
1034;0.821994;0.808007525
1035;0.822112;0.812620014
1036;0.820998;0.81067905
1037;0.819168;0.80637598
1038;0.818676;0.806524062
1039;0.822714;0.814392854
1040;0.820408;0.811306795
1041;0.821498;0.812883154
1042;0.8187;0.805650765
1043;0.819311;0.807059636
1044;0.820898;0.805965773
1045;0.820606;0.811880362
1046;0.817971;0.810681725
1047;0.821761;0.808465933
1048;0.818169;0.807948389
1049;0.819463;0.801065498
1050;0.818702;0.806003229
1051;0.823039;0.805575698
1052;0.820131;0.803265904
1053;0.817692;0.805080847
1054;0.819432;0.804868809
1055;0.818187;0.814375826
1056;0.817736;0.814856169
1057;0.819253;0.81383708
1058;0.81639;0.810155065
1059;0.817294;0.808861311
1060;0.815192;0.81375737
1061;0.817262;0.810182722
1062;0.815028;0.808095855
1063;0.817538;0.81150117
1064;0.818744;0.817247704
1065;0.818459;0.811379316
1066;0.814768;0.815136211
1067;0.817426;0.8100408
1068;0.820303;0.818593848
1069;0.818408;0.815818332
1070;0.819974;0.818113505
1071;0.820859;0.824033784
1072;0.81876;0.817353305
1073;0.821873;0.820753151
1074;0.823534;0.825425927
1075;0.824742;0.829677985
1076;0.825824;0.825767494
1077;0.826828;0.829068675
1078;0.828266;0.832920306
1079;0.836719;0.834563403
1080;0.836416;0.83723183
1081;0.836368;0.842254021
1082;0.834859;0.841742197
1083;0.839656;0.850723001
1084;0.840253;0.848954898
1085;0.844058;0.838114108
1086;0.845987;0.852924629
1087;0.850047;0.858179601
1088;0.852374;0.851587671
1089;0.85253;0.859673542
1090;0.855846;0.855591991
1091;0.86155;0.865355478
1092;0.858579;0.864987385
1093;0.860764;0.869392623
1094;0.863719;0.871961137
1095;0.864809;0.87200713
1096;0.865166;0.87559107
1097;0.868744;0.873803395
1098;0.8726;0.881590847
1099;0.874955;0.881527136
1100;0.875426;0.880394642
1101;0.881534;0.884159994
1102;0.88443;0.881464126
1103;0.883875;0.894715354
1104;0.888935;0.890110659
1105;0.892917;0.895947858
1106;0.891818;0.896605742
1107;0.893324;0.894770927
1108;0.896593;0.9052917
1109;0.895923;0.898436065
1110;0.898542;0.903080112
1111;0.902547;0.910748616
1112;0.904232;0.905283509
1113;0.906993;0.904576079
1114;0.910186;0.91828555
1115;0.913629;0.915044872
1116;0.914178;0.919035849
1117;0.91473;0.925490701
1118;0.918126;0.925026523
1119;0.918916;0.921575565
1120;0.921311;0.928470183
1121;0.921044;0.929444727
1122;0.925527;0.929245689
1123;0.928688;0.933752386
1124;0.934056;0.940951667
1125;0.936378;0.943141605
1126;0.939558;0.940953692
1127;0.941589;0.945760038
1128;0.94428;0.953980997
1129;0.947219;0.952081189
1130;0.949755;0.954496482
1131;0.954112;0.962494949
1132;0.959308;0.965089331
1133;0.958028;0.962377164
1134;0.962715;0.966949685
1135;0.9648;0.968846
1136;0.965796;0.964524933
1137;0.968879;0.97175708
1138;0.973027;0.978847112
1139;0.977596;0.980471452
1140;0.978768;0.976705334
1141;0.979652;0.97761789
1142;0.983508;0.981831466
1143;0.983973;0.980004402
1144;0.986471;0.985061972
1145;0.986786;0.986365166
1146;0.989404;0.986060795
1147;0.991468;0.991514409
1148;0.991409;0.989972601
1149;0.995307;0.99362169
1150;0.997637;0.99349006
1151;0.997166;0.994655026
1152;0.998898;0.995882244
1153;0.994461;0.994611403
1154;0.995634;0.992236543
1155;0.996192;0.990567902
1156;0.997205;0.996876694
1157;0.99596;0.980213362
1158;0.998023;0.986690258
1159;0.996012;0.990855361
1160;0.995984;0.991245083
1161;0.99318;0.990249467
1162;0.99508;0.984634832
1163;0.993832;0.986628887
1164;0.993834;0.983396856
1165;0.991053;0.979791089
1166;0.989256;0.981921018
1167;0.990301;0.981303645
1168;0.989812;0.980289598
1169;0.988889;0.980982584
1170;0.988911;0.983347171
1171;0.988218;0.978048041
1172;0.988553;0.984611702
1173;0.988344;0.981379794
1174;0.986687;0.986112356
1175;0.986722;0.983308403
1176;0.987167;0.97803798
1177;0.987483;0.984976722
1178;0.988231;0.985221549
1179;0.987957;0.985584731
1180;0.989819;0.988987368
1181;0.988135;0.992570397
1182;0.987432;0.988065378
1183;0.991199;0.989746413
1184;0.992066;0.998585028
1185;0.991899;0.989057029
1186;0.996005;0.985821154
1187;0.995155;0.997514817
1188;0.999437;0.999049845
1189;1.00186;1.002963946
1190;1.00473;1.006407241
1191;1.00836;1.014677034
1192;1.01149;1.017513348
1193;1.01544;1.016620009
1194;1.01717;1.021773481
1195;1.02348;1.027983049
1196;1.02722;1.036857458
1197;1.03556;1.036113413
1198;1.03843;1.043960367
1199;1.04123;1.057045691
1200;1.04812;1.056871616
1201;1.05212;1.059240849
1202;1.05888;1.06650927
1203;1.06067;1.084829297
1204;1.06779;1.076323132
1205;1.08064;1.085234435
1206;1.08484;1.084600755
1207;1.0858;1.098911816
1208;1.09025;1.091681809
1209;1.10124;1.092890664
1210;1.10483;1.103713395
1211;1.11062;1.116147678
1212;1.11946;1.111177632
1213;1.12446;1.112912432
1214;1.12718;1.136492552
1215;1.13548;1.130843718
1216;1.14339;1.141874628
1217;1.14337;1.144842837
1218;1.1506;1.140654224
1219;1.15312;1.151506415
1220;1.16003;1.147320146
1221;1.16175;1.159822892
1222;1.16315;1.14097814
1223;1.16273;1.153063881
1224;1.16637;1.151709871
1225;1.16931;1.156390464
1226;1.16984;1.1559092
1227;1.16988;1.163511138
1228;1.17167;1.165462392
1229;1.17648;1.165536977
1230;1.17813;1.163086555
1231;1.1816;1.173151126
1232;1.18078;1.162014069
1233;1.18088;1.169336497
1234;1.18075;1.166432406
1235;1.18494;1.176004674
1236;1.19047;1.169449696
1237;1.1902;1.175850124
1238;1.19183;1.175605548
1239;1.19371;1.178175642
1240;1.1919;1.180031499
1241;1.19721;1.182781137
1242;1.20015;1.189639098
1243;1.20252;1.193273633
1244;1.20214;1.20193341
1245;1.20798;1.19160772
1246;1.21305;1.20006185
1247;1.20924;1.216513638
1248;1.21633;1.21142261
1249;1.22268;1.212414989
1250;1.22627;1.218098277
1251;1.23007;1.218358723
1252;1.23435;1.21926558
1253;1.23871;1.235856969
1254;1.24276;1.229550936
1255;1.24489;1.245696392
1256;1.25102;1.249491521
1257;1.25474;1.247706871
1258;1.25949;1.254705009
1259;1.26391;1.267876437
1260;1.27252;1.27012673
1261;1.27802;1.288372224
1262;1.28475;1.290287827
1263;1.28818;1.291810844
1264;1.29213;1.290044286
1265;1.30159;1.295256183
1266;1.30679;1.299904907
1267;1.31396;1.305991252
1268;1.31999;1.318669181
1269;1.32726;1.321986793
1270;1.33595;1.337381722
1271;1.34675;1.346496543
1272;1.35347;1.351190287
1273;1.35879;1.368232659
1274;1.36944;1.382909374
1275;1.37363;1.391626855
1276;1.38548;1.402450623
1277;1.39598;1.414963803
1278;1.40456;1.41000519
1279;1.41183;1.420221776
1280;1.42078;1.428175588
1281;1.43279;1.436695982
1282;1.43961;1.439444567
1283;1.44805;1.458668994
1284;1.45572;1.474345514
1285;1.46612;1.461844347
1286;1.46878;1.461613918
1287;1.4774;1.482937754
1288;1.4835;1.484753322
1289;1.48963;1.4922012
1290;1.49755;1.487308314
1291;1.50173;1.480222991
1292;1.49759;1.493681022
1293;1.5009;1.499617066
1294;1.50544;1.500530687
1295;1.50157;1.493318145
1296;1.50448;1.484545445
1297;1.50287;1.495212375
1298;1.50316;1.506509588
1299;1.50085;1.486882064
1300;1.50201;1.482796407
1301;1.5022;1.489955789
1302;1.49829;1.470398002
1303;1.50097;1.497373661
1304;1.49938;1.490459746
1305;1.49671;1.470862678
1306;1.49202;1.477424084
1307;1.49706;1.466309906
1308;1.48794;1.480774507
1309;1.48338;1.470032213
1310;1.4828;1.469172397
1311;1.4789;1.465603157
1312;1.47617;1.46023318
1313;1.47806;1.47294822
1314;1.47444;1.470696108
1315;1.47382;1.464914045
1316;1.47248;1.468919064
1317;1.47187;1.457915791
1318;1.47057;1.460146667
1319;1.4674;1.465527334
1320;1.46701;1.450264354
1321;1.46289;1.45283387
1322;1.46281;1.454510447
1323;1.4597;1.446719675
1324;1.45682;1.429180396
1325;1.45938;1.449554828
1326;1.45764;1.462957766
1327;1.45656;1.451903254
1328;1.45609;1.464592773
1329;1.46433;1.445347666
1330;1.45884;1.442853619
1331;1.46036;1.45171219
1332;1.45528;1.44243854
1333;1.46009;1.451283025
1334;1.45541;1.443538012
1335;1.45826;1.454253309
1336;1.45508;1.443429694
1337;1.46042;1.446620564
1338;1.4528;1.448250059
1339;1.45807;1.449678893
1340;1.45222;1.445434897
1341;1.45288;1.440937961
1342;1.45718;1.451256843
1343;1.45417;1.452399266
1344;1.44912;1.453865028
1345;1.45346;1.452174034
1346;1.45265;1.450687828
1347;1.45825;1.458061277
1348;1.45309;1.45461286
1349;1.45735;1.460750848
1350;1.46074;1.466277287
1351;1.45836;1.451179502
1352;1.45902;1.469557402
1353;1.464;1.457962304
1354;1.46255;1.460434419
1355;1.46646;1.468037631
1356;1.47069;1.476213154
1357;1.47416;1.477400724
1358;1.4704;1.47459481
1359;1.47462;1.497439179
1360;1.4768;1.475544524
1361;1.48003;1.470349823
1362;1.48229;1.480486361
1363;1.48747;1.485609011
1364;1.48798;1.485028871
1365;1.49207;1.494415135
1366;1.49869;1.507668135
1367;1.49823;1.500219567
1368;1.50305;1.509044934
1369;1.50962;1.520689596
1370;1.51666;1.526591465
1371;1.52201;1.525248326
1372;1.52652;1.515568692
1373;1.52955;1.525389777
1374;1.53248;1.529001365
1375;1.53333;1.53548576
1376;1.53699;1.530552563
1377;1.54113;1.530125739
1378;1.53804;1.535489972
1379;1.53868;1.540662188
1380;1.53745;1.54922481
1381;1.54041;1.541220297
1382;1.53585;1.551421097
1383;1.5405;1.537460488
1384;1.54159;1.54226949
1385;1.5405;1.532381177
1386;1.54022;1.540740276
1387;1.53907;1.533316805
1388;1.5325;1.550223871
1389;1.5321;1.530692261
1390;1.53843;1.526534361
1391;1.53396;1.528911805
1392;1.53166;1.521824465
1393;1.52851;1.521073661
1394;1.53078;1.518055247
1395;1.53079;1.513446417
1396;1.53169;1.513695874
1397;1.53046;1.523215329
1398;1.5282;1.510693084
1399;1.52551;1.519862223
1400;1.52302;1.522418754
1401;1.5253;1.524279618
1402;1.52658;1.529575144
1403;1.52604;1.515437518
1404;1.52393;1.519100873
1405;1.52109;1.514696212
1406;1.52359;1.51057528
1407;1.52213;1.515591542
1408;1.52281;1.504358456
1409;1.51947;1.494386239
1410;1.51295;1.515840767
1411;1.52204;1.504692058
1412;1.51968;1.514602128
1413;1.52482;1.521975609
1414;1.52181;1.509880562
1415;1.52679;1.517981586
1416;1.52485;1.520582858
1417;1.52686;1.517371865
1418;1.52485;1.506888746
1419;1.53042;1.521784398
1420;1.52601;1.508416268
1421;1.52981;1.516740001
1422;1.52537;1.50959675
1423;1.52608;1.499225453
1424;1.52277;1.505438775
1425;1.53152;1.520622963
1426;1.53123;1.523601943
1427;1.53303;1.514755972
1428;1.5328;1.507035083
1429;1.53912;1.511582253
1430;1.53834;1.516325621
1431;1.54214;1.529023222
1432;1.54399;1.521630351
1433;1.55415;1.533350305
1434;1.55646;1.542657633
1435;1.56644;1.522662638
1436;1.57825;1.53898092
1437;1.59034;1.545301392
1438;1.59412;1.541248318
1439;1.61187;1.564193016
1440;1.61928;1.571954687
1441;1.62879;1.577739054
1442;1.63838;1.572209745
1443;1.64628;1.610758181
1444;1.65863;1.601099363
1445;1.67218;1.599975615
1446;1.68619;1.601098815
1447;1.69952;1.612543723
1448;1.70603;1.608445988
1449;1.71711;1.623029399
1450;1.72054;1.606452095
1451;1.73555;1.634483976
1452;1.74211;1.630613161
1453;1.7536;1.650696534
1454;1.75486;1.64846438
1455;1.76814;1.643513761
1456;1.7706;1.647043341
1457;1.77075;1.64916476
1458;1.77801;1.671238679
1459;1.77907;1.645409313
1460;1.781;1.658615156
1461;1.781;1.667666548
1462;1.77263;1.648506823
1463;1.77702;1.644655989
1464;1.77578;1.650043915
1465;1.77011;1.64875927
1466;1.77064;1.661788343
1467;1.77516;1.654806612
1468;1.76708;1.678125967
1469;1.76408;1.657815134
1470;1.76428;1.666466355
1471;1.75031;1.655357077
1472;1.74401;1.653950792
1473;1.73792;1.640805058
1474;1.73601;1.654898504
1475;1.73191;1.664326709
1476;1.72776;1.646521851
1477;1.72093;1.656919422
1478;1.71864;1.647448959
1479;1.71694;1.660611319
1480;1.711;1.640638759
1481;1.7036;1.652063012
1482;1.70435;1.634774153
1483;1.69923;1.671326922
1484;1.69444;1.649383432
1485;1.69271;1.656525885
1486;1.68806;1.65596023
1487;1.68633;1.659315281
1488;1.68663;1.650319077
1489;1.68035;1.635399693
1490;1.67392;1.64051185
1491;1.67516;1.639951272
1492;1.67077;1.654821795
1493;1.67042;1.650553279
1494;1.66441;1.635879609
1495;1.66475;1.646587511
1496;1.66615;1.644610026
1497;1.66192;1.641138642
1498;1.6616;1.627515939
1499;1.65746;1.633545549
1500;1.65641;1.641559489
1501;1.65548;1.644227344
1502;1.65722;1.64000459
1503;1.65627;1.647168861
1504;1.64753;1.616545175
1505;1.65377;1.630013455
1506;1.65484;1.639615679
1507;1.65334;1.647117126
1508;1.65202;1.646372931
1509;1.65374;1.646228891
1510;1.6546;1.644681992
1511;1.65504;1.659363453
1512;1.65491;1.648293549
1513;1.65938;1.648142201
1514;1.66042;1.653678885
1515;1.66456;1.652008631
1516;1.66569;1.674277656
1517;1.6724;1.681650884
1518;1.67738;1.674357732
1519;1.68208;1.686912463
1520;1.68179;1.675207734
1521;1.69231;1.713339437
1522;1.69183;1.692810279
1523;1.69987;1.703270028
1524;1.70299;1.717440854
1525;1.70605;1.701930714
1526;1.71639;1.72343945
1527;1.72034;1.725159597
1528;1.73122;1.725451968
1529;1.73332;1.752292505
1530;1.73988;1.740212948
1531;1.74069;1.748979995
1532;1.74852;1.756522731
1533;1.75362;1.767173817
1534;1.75884;1.747422948
1535;1.75981;1.767985023
1536;1.76972;1.764592036
1537;1.76983;1.761668379
1538;1.77299;1.770574603
1539;1.77201;1.769241048
1540;1.7767;1.774613343
1541;1.77458;1.771996417
1542;1.77912;1.780645515
1543;1.7778;1.795293299
1544;1.78054;1.790893717
1545;1.78778;1.79046149
1546;1.78015;1.78186349
1547;1.78613;1.769937532
1548;1.7863;1.783574154
1549;1.79162;1.795161032
1550;1.7852;1.798103684
1551;1.79376;1.788601561
1552;1.79416;1.807492025
1553;1.79035;1.793496415
1554;1.79353;1.792100706
1555;1.80086;1.787760167
1556;1.79845;1.788957709
1557;1.79789;1.79133487
1558;1.80031;1.776597458
1559;1.80015;1.787831839
1560;1.79852;1.7954029
1561;1.801;1.799157175
1562;1.79898;1.791283109
1563;1.80553;1.818974721
1564;1.8084;1.804433061
1565;1.80859;1.797934214
1566;1.80835;1.79668908
1567;1.80932;1.807736717
1568;1.81213;1.8050951
1569;1.81164;1.811825053
1570;1.80781;1.804427388
1571;1.81181;1.805198538
1572;1.81051;1.813371955
1573;1.80832;1.788211422
1574;1.80969;1.812743307
1575;1.80951;1.797638296
1576;1.81415;1.815009036
1577;1.81532;1.812210374
1578;1.81042;1.80905802
1579;1.81664;1.836751159
1580;1.8172;1.819048082
1581;1.8197;1.823225793
1582;1.81248;1.805121592
1583;1.8189;1.815870327
1584;1.81192;1.817293848
1585;1.81547;1.826404732
1586;1.81891;1.796540301
1587;1.81943;1.812893942
1588;1.8245;1.809121875
1589;1.82404;1.817050435
1590;1.82291;1.835750749
1591;1.82748;1.815027298
1592;1.83636;1.843112814
1593;1.82879;1.851332613
1594;1.82747;1.830131529
1595;1.83204;1.845331358
1596;1.83096;1.849725113
1597;1.83506;1.849604987
1598;1.83724;1.849797107
1599;1.83279;1.865827489
1600;1.83613;1.85534276
1601;1.84131;1.865058407
1602;1.84077;1.843160867
1603;1.84116;1.859828371
1604;1.84155;1.846522177
1605;1.85117;1.86803691
1606;1.84682;1.852277813
1607;1.85561;1.865518543
1608;1.85781;1.880763184
1609;1.86405;1.874857783
1610;1.87202;1.8947204
1611;1.87591;1.881940329
1612;1.87892;1.88491184
1613;1.88185;1.89208555
1614;1.8868;1.888845793
1615;1.89723;1.91221069
1616;1.89579;1.905627424
1617;1.90502;1.897501014
1618;1.90841;1.924466376
1619;1.91495;1.931042398
1620;1.9202;1.930113923
1621;1.9318;1.931919622
1622;1.93185;1.938540856
1623;1.93925;1.966539865
1624;1.94023;1.957170688
1625;1.95013;1.946497586
1626;1.95794;1.967309973
1627;1.95978;1.979399393
1628;1.96122;1.980133091
1629;1.9682;1.963668472
1630;1.9709;1.997498667
1631;1.97475;1.98211001
1632;1.97485;1.992623073
1633;1.98153;1.983781739
1634;1.98571;1.989650214
1635;1.99345;2.008714125
1636;1.99868;1.98892588
1637;2.00434;1.982558424
1638;2.00538;2.009893138
1639;2.01007;2.012113034
1640;2.01054;2.005886091
1641;2.01366;2.010834187
1642;2.01668;2.011936115
1643;2.01555;2.008586898
1644;2.01206;2.006501718
1645;2.01442;2.01174248
1646;2.01442;2.011872224
1647;2.01915;2.011851614
1648;2.02388;1.990378262
1649;2.02507;2.006325103
1650;2.02392;1.988005387
1651;2.0242;2.013683057
1652;2.02957;2.021719744
1653;2.02799;1.975953659
1654;2.02548;2.013364756
1655;2.0276;2.015563001
1656;2.03539;2.03707087
1657;2.03408;2.023193017
1658;2.03587;2.038590042
1659;2.04079;2.018986748
1660;2.04173;2.034164565
1661;2.04508;2.013747947
1662;2.04675;2.032627438
1663;2.05708;2.05062794
1664;2.05496;2.033890072
1665;2.05596;2.052219398
1666;2.05883;2.064212861
1667;2.06438;2.044251338
1668;2.0672;2.038531664
1669;2.07777;2.049511901
1670;2.07531;2.041767555
1671;2.08054;2.05355362
1672;2.07939;2.027426621
1673;2.08626;2.060172261
1674;2.09405;2.067999417
1675;2.09853;2.059248381
1676;2.10445;2.085265505
1677;2.10876;2.093844276
1678;2.11494;2.110558216
1679;2.11924;2.083430427
1680;2.12668;2.09118615
1681;2.13626;2.100293773
1682;2.13951;2.102070275
1683;2.14524;2.092851783
1684;2.15263;2.099700158
1685;2.15922;2.095243812
1686;2.16755;2.118132745
1687;2.17588;2.114086992
1688;2.18538;2.131032739
1689;2.18951;2.118574326
1690;2.19288;2.139367152
1691;2.20418;2.11573014
1692;2.21536;2.133032532
1693;2.2294;2.154195031
1694;2.23917;2.152803844
1695;2.25633;2.156698239
1696;2.26202;2.181740128
1697;2.27672;2.154925114
1698;2.29661;2.181060346
1699;2.30455;2.193331901
1700;2.31525;2.201903426
1701;2.33015;2.216485057
1702;2.34012;2.228336344
1703;2.35184;2.221649824
1704;2.37051;2.211218883
1705;2.38994;2.223555081
1706;2.40669;2.237869371
1707;2.4252;2.232765541
1708;2.43388;2.25427715
1709;2.45779;2.226077208
1710;2.46965;2.244582014
1711;2.48677;2.24100807
1712;2.49339;2.241594361
1713;2.50842;2.251651541
1714;2.52817;2.280491397
1715;2.54514;2.270139723
1716;2.56049;2.282177157
1717;2.57452;2.277421657
1718;2.58518;2.268130355
1719;2.59718;2.30333884
1720;2.61005;2.302970684
1721;2.61967;2.306216925
1722;2.63501;2.274279665
1723;2.65264;2.287316829
1724;2.6494;2.286559638
1725;2.65758;2.298180625
1726;2.67004;2.299942625
1727;2.67653;2.307573875
1728;2.68146;2.286977605
1729;2.68913;2.297431803
1730;2.69123;2.325180496
1731;2.69718;2.323392123
1732;2.70648;2.305531985
1733;2.70639;2.343453733
1734;2.70873;2.311317381
1735;2.71708;2.305615974
1736;2.71503;2.305509519
1737;2.71399;2.328951887
1738;2.71395;2.320375479
1739;2.71592;2.320163917
1740;2.70953;2.362179103
1741;2.71255;2.335416326
1742;2.70707;2.353335177
1743;2.71455;2.324169029
1744;2.71004;2.327638419
1745;2.70758;2.359213668
1746;2.70715;2.327388501
1747;2.70352;2.339817091
1748;2.70074;2.363354367
1749;2.70175;2.344412924
1750;2.691;2.342353868
1751;2.6827;2.356068343
1752;2.68751;2.34654345
1753;2.67456;2.365149587
1754;2.67506;2.361399321
1755;2.67;2.41774942
1756;2.66032;2.381040009
1757;2.66841;2.405320592
1758;2.65985;2.423144887
1759;2.66398;2.389837103
1760;2.66013;2.431106507
1761;2.65668;2.410704376
1762;2.65633;2.401454819
1763;2.64846;2.431394453
1764;2.64685;2.448614108
1765;2.65031;2.437968058
1766;2.64463;2.446289106
1767;2.64598;2.465294808
1768;2.63857;2.45951846
1769;2.63587;2.467649158
1770;2.63671;2.467135882
1771;2.64173;2.490480259
1772;2.64027;2.483436332
1773;2.64304;2.470768882
1774;2.6417;2.508539624
1775;2.6417;2.498495838
1776;2.63432;2.514817908
1777;2.63716;2.52225746
1778;2.64032;2.552812543
1779;2.64439;2.53262933
1780;2.63567;2.574562643
1781;2.64525;2.502659625
1782;2.63761;2.532862426
1783;2.63591;2.582449566
1784;2.64003;2.559833922
1785;2.64222;2.583269007
1786;2.64239;2.556747456
1787;2.64303;2.581485235
1788;2.6452;2.573390459
1789;2.64591;2.584267347
1790;2.65166;2.55891719
1791;2.65168;2.599643698
1792;2.65653;2.584469641
1793;2.66412;2.627054581
1794;2.66418;2.622608276
1795;2.6708;2.59773309
1796;2.67123;2.607428445
1797;2.67116;2.613516117
1798;2.67931;2.637843448
1799;2.68542;2.62270826
1800;2.6898;2.622722231
1801;2.6908;2.641126264
1802;2.69714;2.6588744
1803;2.70521;2.678597013
1804;2.70961;2.639733887
1805;2.71392;2.66140649
1806;2.71213;2.68063549
1807;2.72314;2.706531052
1808;2.72356;2.673059483
1809;2.72564;2.672930113
1810;2.73712;2.727832489
1811;2.74083;2.710927009
1812;2.74111;2.710520138
1813;2.75502;2.770155944
1814;2.75109;2.751166091
1815;2.75478;2.721083518
1816;2.76096;2.739250118
1817;2.7636;2.771891034
1818;2.7741;2.777911096
1819;2.77208;2.771460169
1820;2.78629;2.767029543
1821;2.78097;2.740054262
1822;2.79255;2.778038421
1823;2.79047;2.748021802
1824;2.79119;2.793198311
1825;2.79195;2.79464189
1826;2.80651;2.822116664
1827;2.80229;2.781716929
1828;2.80703;2.739921357
1829;2.80835;2.776923707
1830;2.81105;2.785410986
1831;2.81093;2.817740622
1832;2.80982;2.796403669
1833;2.81569;2.815326689
1834;2.81873;2.837513936
1835;2.81464;2.800848416
1836;2.81717;2.767962223
1837;2.82269;2.815505338
1838;2.8338;2.807941342
1839;2.83191;2.872226477
1840;2.83773;2.831030413
1841;2.83522;2.795211052
1842;2.83636;2.842984299
1843;2.83813;2.840981123
1844;2.83809;2.827871865
1845;2.8459;2.881298006
1846;2.85012;2.878000256
1847;2.84825;2.836275744
1848;2.84728;2.869722055
1849;2.86186;2.879878739
1850;2.84577;2.863010534
1851;2.86179;2.885688111
1852;2.86684;2.855859333
1853;2.88061;2.878581281
1854;2.89184;2.930980699
1855;2.89767;2.921625164
1856;2.9042;2.924450435
1857;2.90631;2.924873649
1858;2.92261;2.916660241
1859;2.93669;2.942497682
1860;2.94623;2.943410751
1861;2.95684;2.964784138
1862;2.96205;2.957486201
1863;2.98249;2.987252066
1864;2.99397;2.982675473
1865;3.00209;2.991316156
1866;3.01143;2.992930012
1867;3.02245;2.997577463
1868;3.03006;2.987921856
1869;3.03686;3.047355931
1870;3.03421;3.036859362
1871;3.04947;3.049839707
1872;3.05764;3.019143543
1873;3.08154;3.062158805
1874;3.0725;3.036392379
1875;3.07819;3.037701093
1876;3.0851;3.041269002
1877;3.09709;3.070874979
1878;3.09676;3.069908284
1879;3.09849;3.026468505
1880;3.09975;3.04476178
1881;3.1087;3.127120142
1882;3.11997;3.11676355
1883;3.11645;3.115948377
1884;3.12678;3.074004985
1885;3.12986;3.068756959
1886;3.1303;3.113673601
1887;3.13316;3.132515949
1888;3.13754;3.139840817
1889;3.13702;3.178512656
1890;3.14073;3.178423534
1891;3.14147;3.169022239
1892;3.15558;3.172721438
1893;3.15191;3.150742316
1894;3.17304;3.174047213
1895;3.16319;3.172426028
1896;3.17658;3.228802705
1897;3.18054;3.207580679
1898;3.17932;3.21215035
1899;3.17659;3.205044211
1900;3.1898;3.191213507
1901;3.19087;3.207161118
1902;3.18841;3.22760141
1903;3.19223;3.209663936
1904;3.19832;3.206240689
1905;3.20495;3.242512587
1906;3.2025;3.243792501
1907;3.19802;3.169532669
1908;3.20261;3.256759609
1909;3.21699;3.26046248
1910;3.22151;3.254715466
1911;3.21618;3.253189223
1912;3.22838;3.284243036
1913;3.23325;3.278814587
1914;3.23864;3.31370527
1915;3.24879;3.31984149
1916;3.2586;3.333993318
1917;3.27372;3.374204669
1918;3.27711;3.37862849
1919;3.29987;3.376992432
1920;3.30541;3.383159385
1921;3.31612;3.3937179
1922;3.32418;3.414500923
1923;3.34945;3.405541909
1924;3.34307;3.464600763
1925;3.36529;3.379259937
1926;3.37433;3.463903349
1927;3.37369;3.401498142
1928;3.38194;3.482003764
1929;3.39135;3.463068615
1930;3.40622;3.460201994
1931;3.41312;3.457791709
1932;3.40948;3.515507294
1933;3.42365;3.419026228
1934;3.43595;3.556441355
1935;3.43999;3.480388054
1936;3.44409;3.505353662
1937;3.45251;3.496804513
1938;3.45375;3.538173924
1939;3.45795;3.522824821
1940;3.4741;3.531461711
1941;3.48494;3.511681584
1942;3.4941;3.553200885
1943;3.50138;3.580985825
1944;3.50847;3.568888477
1945;3.51468;3.546025648
1946;3.54295;3.634496185
1947;3.5391;3.593928056
1948;3.55865;3.640790045
1949;3.56919;3.646484304
1950;3.57853;3.61283934
1951;3.58465;3.626468995
1952;3.59914;3.627575777
1953;3.61454;3.644878873
1954;3.61064;3.670587962
1955;3.61461;3.678968471
1956;3.61888;3.626445085
1957;3.62689;3.651391367
1958;3.63166;3.739921757
1959;3.63927;3.681464098
1960;3.63718;3.683904108
1961;3.65314;3.647673101
1962;3.65118;3.721172133
1963;3.66638;3.792206313
1964;3.67488;3.733379339
1965;3.68136;3.672172728
1966;3.69726;3.717069967
1967;3.70834;3.77948807
1968;3.7224;3.794478301
1969;3.73401;3.777519849
1970;3.75043;3.796648325
1971;3.77359;3.845600119
1972;3.77781;3.836082546
1973;3.80794;3.875956477
1974;3.80944;3.850248904
1975;3.82643;3.900661404
1976;3.83801;3.931499416
1977;3.8464;3.903278708
1978;3.86965;3.937751472
1979;3.87846;3.93133343
1980;3.89368;3.907200246
1981;3.89518;3.920319794
1982;3.90789;3.876789158
1983;3.9054;3.986897102
1984;3.91969;3.933797006
1985;3.93298;3.8881793
1986;3.9325;3.908825247
1987;3.93124;3.982576295
1988;3.95641;4.008923734
1989;3.96387;3.942811918
1990;3.96734;4.043986967
1991;3.97798;3.997893841
1992;4.00502;3.985707445
1993;4.0026;4.01929525
1994;4.0242;4.083890239
1995;4.02703;3.997807307
1996;4.04408;4.093915835
1997;4.04588;4.046607383
1998;4.06803;4.048333917
1999;4.07661;4.080471421
2000;4.07998;4.039736555
2001;4.09502;4.065332254
2002;4.11101;4.073175355
2003;4.12665;4.178943395
2004;4.14463;4.151856603
2005;4.16234;4.177258762
2006;4.20399;4.123932053
2007;4.22552;4.20076406
2008;4.24689;4.138812424
2009;4.26154;4.215904756
2010;4.26764;4.128153955
2011;4.30387;4.225950835
2012;4.28924;4.241809436
2013;4.32043;4.320398659
2014;4.33082;4.280669694
2015;4.35212;4.28549982
2016;4.36813;4.309053038
2017;4.40094;4.280518295
2018;4.40351;4.356610628
2019;4.43384;4.334745902
2020;4.45579;4.280704324
2021;4.47246;4.390797699
2022;4.47869;4.333506691
2023;4.50132;4.41277198
2024;4.54357;4.382431448
2025;4.57271;4.43383348
2026;4.61383;4.438284842
2027;4.65644;4.466770922
2028;4.68332;4.441814033
2029;4.70041;4.527702008
2030;4.72093;4.48430443
2031;4.74507;4.435925658
2032;4.78332;4.49976938
2033;4.79709;4.542391596
2034;4.83124;4.595750559
2035;4.659101658;4.658890469
2036;4.656849916;4.656638867
2037;4.721091012;4.721092273
2038;4.699242574;4.69924383
2039;4.766718558;4.766719832
2040;4.799571656;4.799798737
2041;4.818742176;4.818743464
2042;4.797555692;4.79778272
2043;4.850640406;4.850641702
2044;4.869550615;4.869551916
2045;4.839153832;4.838925259
2046;4.935675427;4.93591597
2047;5.040425171;5.040426518
