BWSpec Version=BWSpec 3.26
Rseponse Ratio File Version=1.0
CCode=NLU
Int.Time=135
P_Number=2048
Standard Name=SRM 2241         ( Raman )
Start Pixel=50
End Pixel=2034
Start WN=62
End WN=3010
Standard Coefs Order=5
Coefs_C0=0.13535
Coefs_C1=0.00021658
Coefs_C2=0
Coefs_C3=1.8936E-10
Coefs_C4=-9.837E-14
Coefs_C5=1.2414E-17
Pixel   ;  Ratio
0;201.042818429724;201.042872141969
1;201.770914165924;201.770968072692
2;335.851019030067;344.247386477743
3;321.37957606206;314.075578698902
4;513.656051605029;495.311324950527
5;235.899455917929;231.967860293712
6;38.9063691678726;38.7983062858543
7;33.5327046053368;33.5327135642086
8;33.2527685770415;33.1743510991866
9;40.5607456907306;40.5607565272713
10;29.4476651021819;29.5090222883479
11;27.7607120195946;27.7607194363736
12;29.107374728627;29.1073825051914
13;28.4527142993105;28.3962680876749
14;25.9220049864153;25.9220119119503
15;22.2031451481162;22.2374152021274
16;17.3784468453766;17.3784514883446
17;9.86930043845136;9.86930307521443
18;3.68714639325487;3.68714737834308
19;1.46277575042716;1.46292265326767
20;1.18777423439762;1.18777455173311
21;1.54515374088949;1.54515415370541
22;3.05689815031;3.05689896701593
23;9.10300248735406;9.1030049193867
24;17.1087083171958;17.1087128880983
25;19.5784781849116;19.6042445780471
26;24.9134539600966;24.9134606161789
27;24.4647819536839;24.5047636344866
28;25.6315840928013;25.5879997996894
29;27.6964385736409;27.7473585577577
30;27.4834299146393;27.4336484217263
31;25.0282924238487;24.9871341449696
32;21.5572431800924;21.5268008477794
33;25.9588509471275;26.0030055999938
34;20.6440799147096;20.6163380034975
35;22.8978221196897;22.8978282372593
36;22.2743427043615;22.3065370204661
37;26.6063599341109;26.6063670424838
38;21.6045666705022;21.5745660919404
39;18.6616363588673;18.6393188071692
40;13.9315964774791;13.9316001995585
41;11.8698251997829;11.878820665243
42;7.93583797427646;7.93584009447987
43;5.01832937376302;5.01833071450096
44;3.32977700726898;3.33047860771634
45;2.23973469525817;2.23973529364402
46;1.65616814554594;1.65599635751098
47;1.34023180585703;1.34023216392433
48;1.13363887993118;1.13371940069068
49;0.995143014314447;0.995204906595711
50;0.900274913995136;0.900325437984791
51;0.823736122013302;0.823736342089385
52;0.749061258987999;0.749061459113335
53;0.705380494656641;0.705380683111867
54;0.654878471262196;0.654904933903365
55;0.622178494984185;0.622202318193799
56;0.580164822291179;0.580164977292761
57;0.565737401747643;0.565737552894677
58;0.538811792380397;0.538794353383226
59;0.524177393229088;0.52417753327261
60;0.509786222817303;0.509786359015962
61;0.502894560122826;0.502894694480252
62;0.49856597639851;0.498566109599476
63;0.491941967758837;0.491956542587002
64;0.490561016232958;0.490575467739768
65;0.489423782853786;0.489438126177983
66;0.484339553640544;0.484339683040663
67;0.483339236751194;0.48333936588406
68;0.486643315918978;0.486657375504257
69;0.480705439547259;0.480692016285886
70;0.481863631263804;0.481863760002435
71;0.479068105069474;0.479068233061229
72;0.485724360298904;0.485738207999694
73;0.470855505476883;0.470855631274493
74;0.482235177374775;0.482235306212671
75;0.475970077760018;0.475970204924079
76;0.480677181928329;0.480677310349979
77;0.47564453546628;0.475631695131629
78;0.480690668275993;0.480704003943709
79;0.473186071045041;0.473173436240993
80;0.473031263710464;0.473031390089367
81;0.478145159097871;0.478145286843045
82;0.468248978204179;0.468249103305408
83;0.463905220874141;0.463917473693355
84;0.462545649640138;0.462557797387662
85;0.460761930267192;0.46076205336812
86;0.464074104543323;0.464086264897779
87;0.461739205133929;0.461739328495954
88;0.458259678006105;0.458259800438511
89;0.461105888021367;0.46110601121419
90;0.45780932671931;0.457821033278588
91;0.457709217873886;0.457697793505841
92;0.461008360326019;0.461008483492785
93;0.458480003144256;0.458468603718416
94;0.461108763427632;0.461120509652242
95;0.463309299371933;0.463321125250405
96;0.456769054245023;0.456769176279181
97;0.456488622519817;0.456500042586778
98;0.455223113818995;0.455223235440127
99;0.460213814374548;0.460225358163297
100;0.451911775591799;0.451922878925125
101;0.456847973120356;0.456836902307724
102;0.456688661615132;0.456688783627812
103;0.456298243217112;0.456298365125485
104;0.464209361073418;0.464198022000637
105;0.462685938919553;0.462686062534514
106;0.461914540285893;0.461914663694761
107;0.460132216189755;0.460143511721975
108;0.464901408055553;0.464901532262418
109;0.474554423483716;0.474554550269559
110;0.467099316236595;0.467099441030671
111;0.467604947121272;0.467593657025731
112;0.471153556019104;0.471142123813676
113;0.472629620683691;0.472629746955288
114;0.471756953472563;0.471757079511012
115;0.4813968653028;0.481385023631419
116;0.4809996494558;0.480987859047507
117;0.475138958595249;0.475150685612592
118;0.470083919088077;0.47007272062759
119;0.47532193370097;0.475322060691868
120;0.473538623612564;0.473538750127017
121;0.473118513668769;0.473118640070983
122;0.470245551320068;0.470245676954718
123;0.466673321998696;0.46667344667896
124;0.469526466903923;0.46953771329843
125;0.464789722506208;0.464778977965465
126;0.462050908670131;0.462061745596979
127;0.461194073780548;0.461194196996931
128;0.460018634715056;0.460018757617399
129;0.452886543286968;0.452876452173618
130;0.45602895074982;0.456029072586247
131;0.452449214193812;0.452459475130661
132;0.452669710811204;0.452659708531798
133;0.448120479041449;0.448120598764983
134;0.449449082908124;0.44945913161618
135;0.44695778036279;0.446948106657814
136;0.447993938333571;0.447984244782738
137;0.447131439165697;0.447141309400432
138;0.442941434244215;0.442941552584073
139;0.442773720994158;0.442764327090204
140;0.440232148557974;0.440232266173997
141;0.436130352111687;0.436121286937765
142;0.443646072290684;0.443646190818799
143;0.441134964226156;0.441144428165631
144;0.440136808010137;0.440146205707916
145;0.44472076717611;0.44472088599135
146;0.441715832586487;0.441725249882074
147;0.447704638768658;0.447714287258123
148;0.448738951608459;0.44873907149723
149;0.449908371693703;0.449918066045653
150;0.442094647354809;0.442103986533956
151;0.449012961712463;0.449013081674441
152;0.451782911025075;0.451773451121621
153;0.453397348022733;0.453397469156079
154;0.447419857903915;0.447419977440266
155;0.45071581218157;0.450715932598495
156;0.453299395352685;0.453299516459861
157;0.458478360961029;0.45847848345186
158;0.452696033729614;0.452705630063959
159;0.453758246279836;0.453767863541067
160;0.461768625724284;0.461768749094169
161;0.453212865565446;0.453203561206807
162;0.458313968199985;0.458304475934916
163;0.45622642944834;0.456236055265352
164;0.457615373768934;0.457605958399023
165;0.465285314081852;0.465285438391284
166;0.457700211987495;0.457700334270429
167;0.461137143933506;0.46113726713468
168;0.457611475613462;0.457611597872688
169;0.459195618402227;0.459205226248304
170;0.455715385235211;0.455715506987863
171;0.45496793854948;0.454968060102438
172;0.450256095270937;0.450247164097214
173;0.452235851722973;0.452235972546004
174;0.447443657387229;0.447443776929938
175;0.447350061673356;0.447341312234256
176;0.436605503207606;0.436605619854706
177;0.441707777600791;0.441707895611055
178;0.433938754591525;0.433938870526153
179;0.437631456362187;0.437631573283388
180;0.432226019898853;0.432217957328982
181;0.435340297354303;0.435340413663379
182;0.431934992126025;0.431926980500636
183;0.430114456230237;0.430106532219481
184;0.432106407026951;0.432098428770782
185;0.432056690057363;0.432056805489164
186;0.428741013119576;0.428741127665533
187;0.433445329543767;0.433445445346568
188;0.434067535129123;0.434067651098158
189;0.43516804031682;0.435160047453522
190;0.433411026214075;0.433411142007712
191;0.441571949379039;0.441563758379897
192;0.445202468816897;0.445202587760832
193;0.445257673615907;0.44525779257459
194;0.445566111865486;0.445566230906574
195;0.451189862115197;0.451189982658772
196;0.453901015498788;0.453892463275587
197;0.451747138298265;0.451747258990728
198;0.452249497951559;0.452258188007029
199;0.455224509736529;0.455215970311014
200;0.456212587019957;0.456212708905446
201;0.45147527417743;0.451475394797259
202;0.451454671435974;0.451446335306854
203;0.45014885472812;0.450140587332862
204;0.444655130624878;0.444663414227014
205;0.445300723733414;0.445309011562616
206;0.443937178280353;0.443937296886242
207;0.439717726959037;0.439709917594451
208;0.433252485600785;0.433252601352064
209;0.433485753269998;0.433478202195218
210;0.429721762633928;0.429714361142368
211;0.42900297184061;0.429003086456555
212;0.427335149980274;0.427335264150629
213;0.420188661390227;0.420195909040034
214;0.422657070243688;0.422664385420074
215;0.418764109035171;0.418764220915618
216;0.416070180946499;0.416063346025542
217;0.415584335398067;0.415584446428979
218;0.417456301122471;0.417463372116247
219;0.415512918007249;0.415519907462814
220;0.41924943970057;0.419256537805991
221;0.422208568559844;0.42220868136054
222;0.418136092534946;0.418129288332882
223;0.424833887708771;0.424826878859722
224;0.427575749496203;0.427583061493006
225;0.427968963896372;0.427961884511222
226;0.431360135739289;0.431352960060597
227;0.430604335315805;0.430597202102608
228;0.437409082935388;0.437416661571313
229;0.434425200263568;0.434417973597507
230;0.435811020518484;0.435811136953323
231;0.439014324484372;0.439021905468363
232;0.440063329187135;0.440055965230569
233;0.440327940267423;0.440328057909038
234;0.433260287237043;0.433260402990407
235;0.43718444948024;0.437191898640903
236;0.439796750340418;0.439796867840117
237;0.439489553363372;0.439482295803303
238;0.432806522160571;0.432813773693214
239;0.431295912918539;0.431296028147085
240;0.433848484924408;0.433841464228115
241;0.427327491929932;0.427320698565491
242;0.426128675190863;0.426128789038887
243;0.42270501103453;0.42270512396786
244;0.419042714542801;0.419049422688755
245;0.422969017145808;0.422969130149672
246;0.416066359467763;0.416066470627456
247;0.416399931282215;0.416400042531028
248;0.415843955609595;0.415844066709869
249;0.414156760661634;0.414156871311144
250;0.411812773844658;0.411812883867929
251;0.411825872779151;0.411825982805922
252;0.411652830999417;0.411652940979956
253;0.412781849900741;0.412781960182918
254;0.411226997127102;0.411227106993871
255;0.41276993664043;0.412776285886276
256;0.41331154274345;0.413305412428285
257;0.420700942087735;0.420701054485641
258;0.421723382658472;0.421723495329543
259;0.42546880287554;0.425475484452741
260;0.424027108470193;0.42402071348038
261;0.427147071762372;0.427147185882479
262;0.428698282927934;0.428698397462476
263;0.438793152906559;0.438793270138128
264;0.43500433547394;0.435011238881233
265;0.435404693917097;0.435411594363202
266;0.433498637983177;0.433492044539499
267;0.435908578895441;0.435915464124906
268;0.441160431648841;0.441160549512872
269;0.441415146860188;0.441422173996892
270;0.438470927545588;0.438477846488114
271;0.436486309444019;0.436486426059274
272;0.439044893324354;0.439038222247112
273;0.440720585900553;0.440720703647071
274;0.437960612034378;0.437954004841452
275;0.436831509882832;0.436831626590313
276;0.434242296222209;0.434242412237934
277;0.43488656195859;0.434886678146443
278;0.431800734422422;0.431794372514002
279;0.429334980743972;0.429335095448619
280;0.428319768224996;0.42831988265841
281;0.423388684992602;0.423382612916072
282;0.418985185736163;0.41897925415361
283;0.42211267092042;0.422118904110524
284;0.417151376388214;0.417145524100616
285;0.413324780225518;0.413324890652749
286;0.412979179180918;0.412985108420306
287;0.411954236846564;0.411954346907629
288;0.413363436448578;0.413357743500574
289;0.412118400182385;0.412112754763731
290;0.41215314720873;0.412153257322938
291;0.409399508584356;0.40939396358442
292;0.409628610805152;0.409634368426455
293;0.409683433963043;0.409683543417422
294;0.412491884760181;0.412497696778376
295;0.411086156317819;0.411080615942632
296;0.414146592896402;0.41414098170424
297;0.41536547627187;0.415365587244309
298;0.420027718409749;0.420033690064077
299;0.422663622477909;0.422669655391993
300;0.425819236235135;0.425819350000487
301;0.427532887261602;0.42752697140014
302;0.434105912730264;0.434112231996616
303;0.434581388903573;0.434581505009894
304;0.436819640040114;0.436819756744424
305;0.441563808287438;0.441557550805495
306;0.43906996562535;0.439063793249422
307;0.439452090278179;0.439458494555719
308;0.440300026083267;0.440306440916277
309;0.441552866913779;0.441559303976263
310;0.439673190207528;0.439667056276449
311;0.436511604779261;0.436517869800076
312;0.438216450678729;0.438222750618795
313;0.438373337519914;0.438373454639323
314;0.435287977082934;0.435294167052383
315;0.433152595657256;0.43315871238921
316;0.432494330945437;0.432494446494162
317;0.42462489663831;0.424619268494842
318;0.428834272498517;0.428834387069391
319;0.425709644198667;0.425704012243464
320;0.424768901152682;0.424769014637417
321;0.420842271290105;0.420847974383931
322;0.419739923856739;0.419740035997892
323;0.419234021376716;0.419239657180186
324;0.417258856291832;0.417253507980426
325;0.414047404635279;0.414047515255572
326;0.413216549395197;0.413216659793512
327;0.412245488584887;0.412245598723765
328;0.413281741180539;0.413281851596271
329;0.409176758381198;0.409176867700209
330;0.409785904840218;0.409786014321974
331;0.408294235368226;0.408294344451456
332;0.406184344140755;0.40618953733873
333;0.410192630826428;0.410192740416848
334;0.412006836265881;0.412006946340999
335;0.409934647819595;0.40993475734109
336;0.409485310016239;0.409485419417685
337;0.412367133555681;0.412362059586913
338;0.413564584955488;0.413564695446787
339;0.421202981432633;0.42119770856225
340;0.420701839946483;0.420707313517435
341;0.422054530371935;0.422054643131478
342;0.42297911232439;0.422973829361858
343;0.425560809666842;0.425555473043948
344;0.427806552507355;0.427806666803654
345;0.430678066280462;0.430672623058597
346;0.434981278406881;0.434987052546608
347;0.435845289264652;0.435851073988905
348;0.440802679245645;0.440797011593093
349;0.441461579520947;0.441461697465436
350;0.441686571253815;0.441686689258414
351;0.439738821865132;0.439738939349355
352;0.447393590412945;0.447393709942278
353;0.441650414587101;0.44165053258204
354;0.442665636313474;0.442659994302808
355;0.438077659258517;0.438083405960905
356;0.442202315205502;0.442196709489118
357;0.436179771814184;0.436179888347541
358;0.439349741188856;0.439344232226302
359;0.4295593934324;0.429559508197003
360;0.432267478861234;0.432262170937799
361;0.423516361514956;0.423516474665053
362;0.423896709143335;0.423902015936122
363;0.423344714333734;0.423344827437973
364;0.42464742619114;0.424652729664683
365;0.424758551371858;0.424758664853829
366;0.41727907792957;0.417284179836022
367;0.419864151288225;0.419869305302515
368;0.420292376891751;0.42028744776786
369;0.418269928750279;0.418270040498696
370;0.416271269150105;0.416271380364544
371;0.412826225976407;0.41282633627044
372;0.412979829064604;0.412984766412852
373;0.411119164480979;0.41111927431894
374;0.411071469523087;0.411071579348305
375;0.410910950562239;0.410911060344571
376;0.412707676836133;0.412703006625585
377;0.407683681478631;0.407688445598685
378;0.412066022816352;0.412066132907283
379;0.412272557470433;0.412267926888568
380;0.413309810987382;0.413314676253021
381;0.413112729096616;0.413108099107811
382;0.41268142226226;0.412676811841187
383;0.417457006619447;0.417457118150678
384;0.413592827892595;0.413592938391439
385;0.419229663000976;0.419234616667177
386;0.422074744260113;0.422069959655973
387;0.424700147716874;0.424695312911568
388;0.429731552321357;0.429736723036552
389;0.435256174733701;0.435251115066692
390;0.436151812545798;0.436146742467382
391;0.4369289032659;0.436929019999401
392;0.441315220898769;0.441320627311235
393;0.44093665038144;0.440936768185684
394;0.448997138947991;0.448997258905741
395;0.44728787716653;0.44728799666762
396;0.444426037979151;0.444426156715648
397;0.447810559044969;0.447810678685703
398;0.449823798542906;0.44982934613366
399;0.444361061681806;0.444355894917306
400;0.441636464040941;0.441636582032153
401;0.443508553958324;0.443508672449699
402;0.442464178868862;0.442464297081213
403;0.437131263723321;0.437126307026897
404;0.436155369739239;0.436150445637769
405;0.431080973159041;0.431076174269148
406;0.431840698220818;0.431840813594913
407;0.429299314043433;0.429299428738551
408;0.425857462516518;0.425852809585385
409;0.425616697581369;0.425616811292609
410;0.419252703398818;0.4192574169202
411;0.420646762288585;0.420646874672016
412;0.417997570996166;0.417993127136674
413;0.41797701031727;0.417977121987429
414;0.42087639157635;0.420876504021131
415;0.420869838045797;0.420865359848006
416;0.420790835025877;0.4207909474478
417;0.425131386258859;0.42513149984044
418;0.422384735469835;0.422384848317597
419;0.425176443943777;0.425171909783158
420;0.428413507532554;0.4284183314891
421;0.43026569878158;0.430265813734885
422;0.431688714915237;0.431684067574077
423;0.430165189488098;0.430170024244531
424;0.436290652440409;0.436290769003391
425;0.438936243166873;0.438931465745111
426;0.443047855603458;0.443042997023041
427;0.445929410654697;0.445924497864053
428;0.444245341135675;0.444240475694067
429;0.445423493293771;0.44541861158259
430;0.447700512342997;0.447705674082359
431;0.448285892295384;0.448286012063112
432;0.452725857444043;0.452725978397988
433;0.454137425561381;0.454142704498718
434;0.455237298179508;0.455242592251594
435;0.458041527809081;0.458041650183204
436;0.458783301373605;0.458783423945907
437;0.459499162154029;0.459494046189875
438;0.458449279316138;0.458449401799199
439;0.461078599987717;0.461083977511876
440;0.458235367219449;0.458235489645359
441;0.452894519979342;0.452894640978348
442;0.454268759395444;0.454263810343701
443;0.454929980595064;0.454925026832176
444;0.455896323296381;0.455891358102896
445;0.449835318719763;0.449830495872142
446;0.451035566068837;0.451040646495605
447;0.450834254210004;0.450834374658573
448;0.448206477292732;0.448206597039242
449;0.444218724007044;0.444218842688153
450;0.445062777093113;0.445067688218006
451;0.445864274743586;0.44586919409251
452;0.440333600828151;0.440338391339503
453;0.439219411315031;0.439219528660483
454;0.437471582565249;0.437467104924965
455;0.43537215100668;0.435372267324267
456;0.434946478197425;0.434946594401286
457;0.428488620272044;0.42848873475057
458;0.435509728441234;0.435509844795577
459;0.43454844160129;0.434548557698808
460;0.430939334783286;0.430935042501148
461;0.427776183782372;0.427776298070558
462;0.43222704624844;0.432227161725755
463;0.430433020142486;0.430428763130427
464;0.432226475582105;0.432230991297398
465;0.434343338107269;0.43434345414999
466;0.434564249221155;0.434564365322896
467;0.433654755508115;0.433654871366869
468;0.435932534372036;0.435928208711569
469;0.435527750693541;0.435527867052699
470;0.437823174484061;0.437827755397057
471;0.441544082331261;0.441544200297791
472;0.445071341288837;0.445071460197739
473;0.448060605955685;0.448056076958815
474;0.448740280529121;0.448740400418247
475;0.450218253869265;0.450218374153258
476;0.449122481761718;0.449122601752956
477;0.453292448422192;0.453292569527512
478;0.456518965898906;0.456519087866249
479;0.458308457851955;0.458313389815299
480;0.457871850907801;0.457871973236592
481;0.465803512321685;0.465803636769564
482;0.462913377318355;0.462913500994082
483;0.470721004369252;0.470721130130928
484;0.469911868294245;0.469917003135262
485;0.475124852939839;0.475124979878083
486;0.47425589253848;0.474250935896734
487;0.475210727305385;0.475210854266572
488;0.478109343436464;0.478109471172069
489;0.477989349985592;0.477994612943518
490;0.47975291114731;0.479753039322024
491;0.479393812593951;0.479388794310429
492;0.479704880537346;0.479705008699227
493;0.472710441964903;0.472710568258093
494;0.47278592073604;0.472781069096576
495;0.469961919879963;0.469966955196937
496;0.466244496664771;0.466249444783345
497;0.466682642286373;0.466677943274922
498;0.462998961353055;0.462994345870053
499;0.463825349215772;0.463820725689159
500;0.458982034944462;0.458982157569858
501;0.457574365622558;0.457569884321547
502;0.457339330386063;0.457334862101503
503;0.45213444297196;0.45213904229878
504;0.448899844247746;0.448904370862309
505;0.451277325564247;0.45127744613119
506;0.44833597637485;0.448331716505128
507;0.44549971084282;0.445504146557672
508;0.441453674681394;0.441449561707606
509;0.441826525502908;0.441822413109782
510;0.438208510192036;0.438204473316138
511;0.435033959015153;0.435034075242385
512;0.433462238188689;0.433462353996007
513;0.437679408226305;0.437683646902182
514;0.434150727983247;0.434150843974508
515;0.435488478837479;0.435488595186145
516;0.435214859528923;0.435219029444215
517;0.436256323335706;0.436256439889516
518;0.440487032576114;0.440483012676633
519;0.440506353841973;0.440506471531255
520;0.440299342954808;0.440299460588784
521;0.446115509421093;0.446115628608963
522;0.446198049801136;0.446198169011058
523;0.449930640579138;0.44993076078629
524;0.454465743156278;0.454470222371404
525;0.454080759620366;0.454080880936298
526;0.459727911848164;0.459728034672835
527;0.467332473684941;0.467332598541309
528;0.465843843088987;0.46584396754764
529;0.468515397588774;0.468520113530199
530;0.473851724898277;0.473856539200188
531;0.471034756450319;0.47103488229582
532;0.475840228164497;0.475840355293867
533;0.478558757339021;0.478558885194695
534;0.479500317337285;0.479500445444514
535;0.484294934537264;0.484295063925462
536;0.484222275763309;0.484217561164215
537;0.487793441537819;0.487793571860707
538;0.487690176596862;0.487690306892161
539;0.484799153784709;0.484799283307618
540;0.482396016676182;0.482400919865695
541;0.480091227736705;0.480091356001806
542;0.482540009602607;0.482544899178402
543;0.480779479614607;0.480779608063587
544;0.47801168352746;0.478007155701003
545;0.47243538507433;0.472435511294034
546;0.475496827545467;0.47549695458309
547;0.474258502272052;0.474254069851817
548;0.465575502910159;0.465580013561321
549;0.467470601495236;0.467470726388507
550;0.469210637715685;0.469210763073838
551;0.463881380387616;0.463885836424168
552;0.462179117976552;0.462174948503836
553;0.461164280333783;0.461164403542206
554;0.45826545481909;0.458269783531055
555;0.455740659136366;0.455736627981783
556;0.4543127255655;0.454308727014077
557;0.448270572817724;0.448266688305333
558;0.452677793961972;0.452681991466555
559;0.4494331971944;0.449433317268651
560;0.446965498164281;0.446969578495352
561;0.447446527293378;0.447446646836854
562;0.449814361357321;0.449818479600047
563;0.452272199126968;0.45227231995971
564;0.45251196403687;0.452508052424179
565;0.449935943938111;0.449932084102237
566;0.452190581638674;0.452190702449611
567;0.451829159524477;0.451825280050452
568;0.461608615229833;0.461604570306421
569;0.464190509776593;0.464186425814036
570;0.463959696180544;0.463959820135813
571;0.4656509246208;0.465651049027912
572;0.470993384743497;0.470993510577944
573;0.467981154907595;0.46798127993727
574;0.470577683857071;0.470577809580456
575;0.47339827374256;0.473402733464979
576;0.47412963511696;0.474134101252628
577;0.474409560174951;0.47441402434243
578;0.47274191299283;0.472742039294429
579;0.472695621691991;0.472695747981222
580;0.47609764044772;0.476102114459167
581;0.482162827713518;0.482167407486192
582;0.484107301407754;0.484102951255938
583;0.48917842310116;0.489178553794071
584;0.492641926875085;0.49263743483021
585;0.495591640089509;0.495591772495827
586;0.498477655783826;0.498477788961195
587;0.499195897042874;0.499196030412135
588;0.498974526544617;0.498969947389586
589;0.499427389137176;0.499422809209257
590;0.496062327263971;0.496057817276858
591;0.496852775560374;0.496852908303627
592;0.494381646345358;0.494381778428404
593;0.494032871060161;0.494033003050025
594;0.489635136221545;0.489635267036475
595;0.487885835278729;0.487881511023058
596;0.485541689307989;0.485546223915688
597;0.488151536874296;0.488151667292855
598;0.485803471788271;0.485803601579502
599;0.48398585067143;0.48399033565922
600;0.477494392272524;0.477494519843834
601;0.480922577305703;0.480918418882965
602;0.481853900744299;0.481858326224066
603;0.474981717271964;0.474986012580751
604;0.472549165501003;0.472549291751105
605;0.479177800648112;0.479173699832611
606;0.472881803586223;0.472881929925195
607;0.473990402114872;0.473986404080453
608;0.473270847118228;0.473270973561141
609;0.474002940219486;0.47400306685799
610;0.474628070291366;0.474628197096886
611;0.473639111792758;0.473643331027602
612;0.465859225050654;0.46585539646076
613;0.469600467338098;0.469600592800401
614;0.469435954896751;0.469440081781913
615;0.473636144589338;0.473632204186079
616;0.471033022857775;0.471033148702812
617;0.475732571513768;0.47573678889792
618;0.47451316943014;0.474513296204962
619;0.476415767415382;0.476419983964935
620;0.477551195409127;0.477555425388257
621;0.48028662336319;0.480286751680495
622;0.483137112266863;0.483141427251475
623;0.484902989109744;0.484898908701038
624;0.48503481447946;0.48503494406533
625;0.488393507126615;0.488393637609821
626;0.487219301325376;0.487219431494872
627;0.492577050254818;0.492572864336084
628;0.493460886724948;0.493461018561997
629;0.495941431144128;0.495941563643899
630;0.504235620291443;0.504235755007157
631;0.509440378601586;0.509440514707847
632;0.509820633532882;0.50982535957805
633;0.516604242184133;0.51660438020435
634;0.520240763455328;0.520245667256076
635;0.519515903161157;0.519516041959277
636;0.522798793476941;0.522798933152145
637;0.52336766716584;0.523372607299437
638;0.523576100546545;0.523571443666737
639;0.526366025231997;0.526371006632084
640;0.527317746756691;0.527322738591229
641;0.527711642373765;0.527711783361526
642;0.526075501432778;0.526070828496224
643;0.528366832422519;0.528371821878348
644;0.522900261461931;0.522900401164244
645;0.522142396076998;0.522142535576833
646;0.521384318192292;0.521379757791941
647;0.522400764663677;0.522405615300503
648;0.524184292486994;0.524189168739239
649;0.52279433663502;0.522799180405602
650;0.51608377667675;0.516083914557916
651;0.516179344918567;0.516184054993303
652;0.506850041810063;0.506850177224268
653;0.505473547129957;0.505469310776775
654;0.504290966281079;0.50429110101158
655;0.499997682314441;0.499997815897913
656;0.499216735734208;0.49922111415044
657;0.499274348189073;0.499278721342215
658;0.494762670994556;0.4947628031794
659;0.495328510856049;0.495332803939356
660;0.4900790983868;0.490083296367889
661;0.494797642279611;0.494793634876596
662;0.491741798212493;0.491741929590256
663;0.492714859346687;0.492714990984421
664;0.487978612222588;0.487978742594948
665;0.48990986205141;0.489905958367869
666;0.487093382759694;0.48708953037999
667;0.49404260264725;0.494042734639715
668;0.488326495827801;0.488330617454885
669;0.487782752756619;0.487778906628979
670;0.490468176210869;0.490468307248361
671;0.48959430105293;0.48959043738505
672;0.486301651872846;0.486297846552615
673;0.489120151997508;0.489120282674851
674;0.492381230470086;0.492385384742231
675;0.490392453127757;0.490392584145018
676;0.489893986978779;0.489894117862866
677;0.491432326729988;0.49143245802507
678;0.490907727178006;0.490907858332932
679;0.493403133282748;0.493407275730465
680;0.49244167605427;0.492445796940208
681;0.497682686269997;0.497678750406538
682;0.498325156049274;0.498321215637776
683;0.496673744592506;0.496673877287928
684;0.497867949151937;0.497864027601929
685;0.499642812197363;0.499642945686026
686;0.499175648309478;0.499175781673329
687;0.498285586408051;0.498289763798436
688;0.501531777017749;0.501531911011083
689;0.509014019774097;0.509014155766448
690;0.505769084206413;0.50576507028162
691;0.510697289024014;0.510697425466081
692;0.508459929025105;0.50846006486942
693;0.509934150780986;0.509934287019167
694;0.514199380147802;0.514203782193247
695;0.512721936241975;0.512726307517984
696;0.516871727111873;0.516871865203553
697;0.518219034826296;0.518219173277935
698;0.520832616005109;0.520837106305849
699;0.523465238431601;0.523465378284858
700;0.523780907486432;0.523785435817131
701;0.524693358613565;0.524693498794937
702;0.526843162309796;0.526838875513229
703;0.531135030046991;0.531135171949373
704;0.531078875959747;0.531074531169832
705;0.537667517371577;0.537672253486184
706;0.538804778357328;0.538804922308822
707;0.544484734180766;0.544484879649763
708;0.545172204166825;0.545172349819493
709;0.548917558226264;0.548917704879571
710;0.549607986658145;0.549608133495912
711;0.549188603180497;0.549183997658547
712;0.554947684570041;0.554942986974881
713;0.555006955349294;0.555007103629494
714;0.555632176981334;0.555632325428574
715;0.559942263244164;0.559937499343335
716;0.555139522106258;0.555139670421876
717;0.562371025252586;0.562376118466651
718;0.563370080655906;0.563370231170467
719;0.561863865361161;0.561864015473309
720;0.560672736596341;0.560672886390258
721;0.561756716105483;0.561756866189005
722;0.565515156223587;0.565520272327111
723;0.565054414953258;0.565054565917819
724;0.56256926713088;0.562564517171764
725;0.561585978076508;0.561591004856643
726;0.566483703963608;0.566488810903977
727;0.56371395228433;0.563709202222204
728;0.565295764174747;0.565300836983367
729;0.55911595918957;0.559116108567565
730;0.558782253934421;0.558777606972461
731;0.559710731024548;0.559706074691131
732;0.559678187332603;0.559673537862858
733;0.562588952136099;0.562589102441968
734;0.554835049444237;0.55483519767851
735;0.554832394400368;0.554837240464171
736;0.55387409694263;0.553874244920166
737;0.555976787826851;0.55597693636616
738;0.554940213672027;0.554945043237219
739;0.555118973837666;0.555123800380746
740;0.554400990929075;0.554405799133614
741;0.552981806210512;0.552986584203482
742;0.551145756742066;0.551145903990677
743;0.549125878829543;0.549121471499483
744;0.550587982353974;0.550588129453565
745;0.551769379163289;0.551764940423127
746;0.548476532123521;0.548481204492239
747;0.548208387142492;0.548208533606331
748;0.550498382711339;0.550498529786992
749;0.549071316916788;0.549071463611175
750;0.55142932199007;0.551424918064281
751;0.548844225628127;0.548848875267751
752;0.54390293118407;0.543907493159502
753;0.545857987863025;0.545858133698912
754;0.541024818029539;0.541020603687897
755;0.543690657010039;0.543686405892703
756;0.546012431762307;0.546017006108974
757;0.546502943432397;0.546503089440595
758;0.547929839697583;0.547929986087003
759;0.548905177084609;0.548905323734608
760;0.546188169471822;0.546188315395923
761;0.552038644234834;0.552043290082423
762;0.552181613460426;0.552177266002221
763;0.556396383813929;0.556401090701449
764;0.55330200820067;0.553306658077079
765;0.552006860612497;0.552002532745727
766;0.554961865482076;0.554957495987174
767;0.558315174059368;0.558319890145213
768;0.56088913649567;0.560884683007998
769;0.557634431520649;0.557634580502827
770;0.562999590523304;0.562995114354987
771;0.556704432263053;0.556700062877519
772;0.565929221564387;0.565929372762669
773;0.565567890701742;0.565563390138451
774;0.565495441907221;0.565495592989611
775;0.571659362778594;0.571654774750179
776;0.567586586912551;0.567591406361275
777;0.573339870682515;0.573340023860687
778;0.577378768979806;0.577374104839647
779;0.578966596327793;0.578966751009247
780;0.58458142254301;0.584576651368037
781;0.590573009223811;0.590573167006129
782;0.584341319540366;0.584341475657775
783;0.590468204074635;0.590468361828952
784;0.589731038977612;0.589731196534982
785;0.588321742345709;0.58832189952656
786;0.59541121130573;0.595416445140057
787;0.597823905294254;0.597824065013781
788;0.596705487547109;0.59670564696783
789;0.603057762812877;0.603052736781886
790;0.603478211201674;0.603483560698061
791;0.608420196096837;0.608420358647356
792;0.60839775742586;0.608397919970384
793;0.609280038256915;0.609280201037156
794;0.612334340392971;0.612334503989225
795;0.613977648874714;0.613977812910007
796;0.611562205425991;0.611567659147864
797;0.614320618766046;0.61432078289297
798;0.611917593486285;0.611912473072356
799;0.610740101050275;0.610735006832469
800;0.617448769858927;0.617448934821593
801;0.618770927868179;0.618776477173131
802;0.616994648770145;0.616989466850647
803;0.617438537039291;0.617433353801749
804;0.62399195198866;0.623992118699456
805;0.624081334301584;0.624086952291467
806;0.622914549717875;0.622920140715125
807;0.622846746631485;0.622841496034118
808;0.624253611683903;0.624259213753313
809;0.627210322596408;0.627210490167051
810;0.618393168375988;0.618393333590968
811;0.62233632568092;0.622331108788255
812;0.621837942596271;0.62184347717993
813;0.626289505394902;0.626289672719532
814;0.623424500083403;0.623424666642594
815;0.622456900075235;0.622462427024458
816;0.624567847731434;0.624573405495264
817;0.619480069976425;0.61948023548179
818;0.617157418751125;0.617157583635951
819;0.61497150372363;0.614971668024449
820;0.612093424555826;0.612093588087714
821;0.614931700710352;0.614931865000538
822;0.616159351669762;0.616159516287937
823;0.612638600824645;0.612638764502187
824;0.616754411257505;0.616749366782861
825;0.615427377229295;0.615427541651909
826;0.612489640480017;0.612489804117761
827;0.616712945042641;0.616707918795707
828;0.614590084848431;0.614585099482638
829;0.613289177982803;0.613289341834159
830;0.615356786392172;0.615362101778237
831;0.614351125615675;0.614351289750749
832;0.615518019552347;0.615518183999178
833;0.61477935620067;0.614784644637662
834;0.616087823747121;0.616082848111334
835;0.614258810649867;0.614264078953048
836;0.616017895974352;0.616018060554734
837;0.613658341379628;0.61366358831372
838;0.615859571964571;0.615859736502654
839;0.614048567798042;0.614048731852283
840;0.615333259201658;0.615333423599127
841;0.609893327254415;0.609898488997686
842;0.614321619489146;0.614321783616337
843;0.616390244900031;0.616385314939023
844;0.61892416636384;0.618919200699232
845;0.620271200116017;0.620271365832747
846;0.622277304910105;0.622277471162802
847;0.625542907446089;0.625543074571252
848;0.62429595313429;0.624301317889071
849;0.62690688425465;0.626907051744223
850;0.63078072641814;0.630775599958337
851;0.636067656660383;0.636067826597423
852;0.63502216011787;0.635022329775587
853;0.634803989258939;0.634804158858368
854;0.636878072113481;0.636878242267038
855;0.641810648612159;0.641816272651085
856;0.644961075656894;0.644955747703488
857;0.638374580926491;0.638369368711888
858;0.642983942908625;0.642984114693477
859;0.647998345582707;0.647998518707248
860;0.64880666338783;0.648806836728328
861;0.649709148423915;0.649714874127576
862;0.654601491143001;0.654607296142007
863;0.65259141170227;0.652591586053932
864;0.657484492969251;0.657479000852348
865;0.657823111978818;0.657828955491594
866;0.658002192170592;0.657996703151836
867;0.666041531180404;0.666047507246106
868;0.666209176660326;0.666209354650222
869;0.664712148197808;0.664706562919059
870;0.665836599393872;0.665836777284227
871;0.668982986022792;0.668988989900611
872;0.673152213867638;0.673152393712492
873;0.672136752338944;0.672131063975882
874;0.670168791114069;0.670168970161848
875;0.675145433097035;0.675145613474414
876;0.672075946911101;0.67207612646841
877;0.671183324003058;0.671177676064522
878;0.674283388185943;0.674277693145081
879;0.676919836046743;0.676925932169752
880;0.672615341134359;0.672609686616078
881;0.670110069755979;0.670110248788069
882;0.673203928749352;0.673209941254953
883;0.669865877116103;0.669866056082952
884;0.666042285981393;0.666036766386376
885;0.6691779153593;0.669183839738514
886;0.664128970269543;0.664134801213853
887;0.665172405860117;0.665166918093806
888;0.664850953206635;0.664851130833656
889;0.660948913934655;0.660943507990285
890;0.663399184227463;0.663399361466618
891;0.662979570141637;0.662985353009437
892;0.664445359573917;0.664445537092577
893;0.659729673909636;0.659735390020038
894;0.664442594098912;0.664442771616833
895;0.660859403579121;0.660859580139727
896;0.661459268345962;0.661459445066833
897;0.662553393385265;0.662559135643642
898;0.665831009256196;0.665831187145057
899;0.659838294727046;0.659832962261538
900;0.655371945435853;0.655372120530385
901;0.661976793910146;0.661971437140277
902;0.664971751081163;0.664977507176825
903;0.660282999623688;0.660288670697563
904;0.667078793902942;0.667084575005838
905;0.666905902781698;0.666906080957737
906;0.662961321708435;0.662961498830607
907;0.668046641528248;0.668046820009056
908;0.665779729222298;0.665779907097459
909;0.670956607073411;0.67096242708886
910;0.667541676514407;0.667547432955889
911;0.664746960608105;0.664747138207343
912;0.668476450092369;0.668476628688008
913;0.671485151449216;0.671485330848684
914;0.672055700381262;0.672050247928269
915;0.674711733158611;0.674706242237711
916;0.678980160546294;0.67898034194819
917;0.67913386328596;0.67913404472892
918;0.680044194983414;0.680044376669586
919;0.677496425426499;0.677496606431988
920;0.68667190138343;0.686672084840315
921;0.686485738564374;0.686480084506199
922;0.687373587558961;0.687373771203314
923;0.694120730683258;0.694126873022514
924;0.70269154222913;0.702691729965953
925;0.6972149385864;0.697215124860048
926;0.698114510431697;0.698120705644789
927;0.69735690238836;0.697357088699937
928;0.700227243048148;0.700221396388005
929;0.695004595341703;0.695004781024818
930;0.694428499466752;0.694428684995953
931;0.693841965040631;0.693842150413128
932;0.695592172945631;0.695586426734229
933;0.703397628511607;0.703403876867667
934;0.70398598021034;0.703980103420255
935;0.704512882523547;0.70450700238053
936;0.707720742379109;0.707714813328488
937;0.709547671764601;0.709541717210503
938;0.716169346832506;0.716169538170169
939;0.714664531971799;0.714664722907424
940;0.717678020069753;0.717678211810486
941;0.717616695078055;0.717616886802404
942;0.719977415429399;0.719977607784458
943;0.718324360761114;0.71833081553071
944;0.719463633295976;0.719457548565369
945;0.722907411689715;0.722907604827575
946;0.722641267651643;0.722647781934815
947;0.725245271571137;0.725251826466333
948;0.724948991778997;0.724949185462302
949;0.72845082102037;0.728444609759556
950;0.732076535583048;0.732083195310146
951;0.735581248022073;0.735581444545979
952;0.735193779113129;0.735193975533516
953;0.740171491939548;0.740171689689821
954;0.736161410182114;0.736161606861021
955;0.741108093788233;0.74110169665568
956;0.744798682250175;0.744805536455797
957;0.744903133219185;0.744903332233602
958;0.745126373615226;0.74513322204296
959;0.742309903333625;0.742316695044165
960;0.746161824508382;0.746162023859081
961;0.747094623510398;0.747094823110312
962;0.746747457893131;0.746747657400293
963;0.754872310958609;0.754865718104406
964;0.752029307549501;0.752029508467805
965;0.760524736390408;0.760531824400078
966;0.764283193723878;0.764290344936445
967;0.763431218348272;0.763424496885336
968;0.766495768507677;0.766502948538241
969;0.766751101760798;0.766744332849186
970;0.764988710304694;0.764981978904216
971;0.762313409539422;0.762320494782667
972;0.768229485102864;0.76822969034934
973;0.771656188795954;0.771649355838811
974;0.773591281746719;0.773591488425696
975;0.773013340281311;0.7730205988197
976;0.777364385412299;0.77736459309933
977;0.785656650356677;0.785656860259138
978;0.781172746130403;0.781172954834907
979;0.78146545979145;0.781458485985291
980;0.786846133778542;0.786846343998794
981;0.790687839521803;0.790680710007419
982;0.789533138256292;0.789526035991859
983;0.787771397168801;0.787764333122831
984;0.786316429915011;0.786316639993743
985;0.787450537774636;0.787450748156365
986;0.790107889627669;0.790115400313785
987;0.797988709630844;0.797996362590511
988;0.798821118296287;0.798821331715874
989;0.797666625121421;0.797666838232564
990;0.795239456865038;0.795232299173231
991;0.799264665961703;0.799264879499792
992;0.797857038140507;0.797857251302522
993;0.795903134463369;0.795895982810208
994;0.807720126248723;0.807727920581609
995;0.806480438832383;0.806480654298296
996;0.804299354322596;0.804307071440414
997;0.797514553396899;0.797522136668937
998;0.801866942956272;0.801874602014106
999;0.806011003653951;0.806011218994446
1000;0.801446068364361;0.801446282485251
1001;0.798637136729116;0.798629983140007
1002;0.80484064600108;0.804840861028893
1003;0.799110950395531;0.799118527886469
1004;0.80306676401245;0.803074409692838
1005;0.805714577399939;0.805714792661239
1006;0.803755474430123;0.803763121165731
1007;0.805095368386677;0.805088132757148
1008;0.80789598718127;0.807896203025373
1009;0.808244213214489;0.808251926502645
1010;0.807924594103685;0.807932295453801
1011;0.797581701677811;0.797574625587736
1012;0.804934042113356;0.804941675641543
1013;0.801901387320041;0.801908958458005
1014;0.807956540549272;0.807964218972419
1015;0.807969846260295;0.807970062124131
1016;0.807825839361029;0.807826055186391
1017;0.81063827039668;0.810638486973435
1018;0.806815904176271;0.806823538048468
1019;0.810475285590392;0.810475502123601
1020;0.812911318142262;0.812919054487314
1021;0.809325252327287;0.809325468553245
1022;0.810173299373006;0.810173515825534
1023;0.810297321039324;0.810304991141309
1024;0.807488198730815;0.80748101825788
1025;0.806430434783748;0.806430650236302
1026;0.813989135068027;0.813996856959325
1027;0.813590342375207;0.813598051090517
1028;0.810857714466589;0.810857931101971
1029;0.809603146331579;0.809603362631781
1030;0.812491669124228;0.812491886196151
1031;0.805048626148355;0.805041528721822
1032;0.809258405094324;0.809266005048967
1033;0.812321389630996;0.812321606657426
1034;0.807999959164481;0.808007524768707
1035;0.812619797237664;0.812620014343819
1036;0.81067883372944;0.810679050317032
1037;0.806375764245974;0.806375979683922
1038;0.80653114740613;0.806524061844902
1039;0.814392636257541;0.814392853837342
1040;0.811313955409953;0.811306795242587
1041;0.812882936484064;0.812883153660521
1042;0.805650549663271;0.805650764907465
1043;0.807066704243816;0.80705963613184
1044;0.805965557555478;0.805965772883832
1045;0.811880145342248;0.811880362250792
1046;0.81067417575898;0.810681725314358
1047;0.808465716642027;0.808465932638344
1048;0.807948173438881;0.807948389296927
1049;0.801065283564489;0.801065497583645
1050;0.806003013729967;0.806003229068328
1051;0.805575482610399;0.805575697834537
1052;0.80326568950143;0.803265904108465
1053;0.805087827227212;0.80508084683949
1054;0.804868593826357;0.804868808861637
1055;0.814375608567233;0.814375826142485
1056;0.814848596386602;0.814856169381532
1057;0.81383686237944;0.813837079810756
1058;0.810154848819649;0.810155065267248
1059;0.80886832700142;0.808861310991436
1060;0.813757152954384;0.813757370364405
1061;0.81018975065104;0.810182721624445
1062;0.808088435965949;0.80809585484799
1063;0.811500953258398;0.811501170065634
1064;0.817240128842374;0.817247703876252
1065;0.811379098971728;0.811379315746408
1066;0.815128684331136;0.815136210583199
1067;0.810040583809285;0.810040800226357
1068;0.818593629272439;0.818593847974611
1069;0.815825420087824;0.815818332498105
1070;0.818120627753645;0.818113504708729
1071;0.824033564017998;0.824033784173548
1072;0.817353087093068;0.817353305463808
1073;0.820745558136007;0.820753151059003
1074;0.825425706237861;0.825425926765348
1075;0.829677763793405;0.829677985456906
1076;0.825767273737723;0.825767494356465
1077;0.829068453152072;0.829068674652785
1078;0.832920083486802;0.832920306016548
1079;0.83456318000534;0.834563402974069
1080;0.837239243041698;0.837231830466112
1081;0.842253796461746;0.842254021485163
1082;0.841749680742537;0.841742197298801
1083;0.850730641935125;0.850723000828269
1084;0.848954671533141;0.848954898346819
1085;0.838113884005162;0.838114107922526
1086;0.852924400974013;0.852924628848276
1087;0.858179371598082;0.858179600876305
1088;0.851595301350271;0.851587670792365
1089;0.859681314826315;0.859673541810467
1090;0.855583840441754;0.85559199051447
1091;0.865347149079029;0.865355478226403
1092;0.864987153993041;0.864987385090087
1093;0.869392390547629;0.869392622821614
1094;0.871952698613687;0.871961137415218
1095;0.871998695483624;0.87200712979068
1096;0.875590836098967;0.87559107002898
1097;0.873794937445852;0.873803395315046
1098;0.881590611819159;0.881590847352121
1099;0.88152690084841;0.881527136364351
1100;0.880394407251729;0.880394642465104
1101;0.88415135922073;0.884159994172506
1102;0.881463890356989;0.881464125856096
1103;0.894706525390596;0.89471535383254
1104;0.890110421166249;0.890110658975433
1105;0.89594761882771;0.895947858196408
1106;0.896605502946736;0.8966057424912
1107;0.89477925680006;0.894770927141602
1108;0.905300224434758;0.905291700466294
1109;0.898435824658608;0.898436064692076
1110;0.903088583227622;0.903080112476139
1111;0.910748372872364;0.910748616195352
1112;0.90528326703978;0.905283508902666
1113;0.904584561645161;0.9045760788817
1114;0.918276319625571;0.918285550053378
1115;0.915044627119928;0.915044871590739
1116;0.919044592558079;0.919035849356521
1117;0.925490453712806;0.925490700974409
1118;0.925026275477103;0.925026522614692
1119;0.921566297448905;0.921575565184376
1120;0.928460783558135;0.928470182979737
1121;0.929444479164021;0.929444727482014
1122;0.929254596646962;0.929245689333267
1123;0.933742897504802;0.933752385732693
1124;0.94096079197405;0.940951667137784
1125;0.943150767026673;0.943141604818466
1126;0.940953441014964;0.940953692407786
1127;0.945750330742606;0.945760038275477
1128;0.953980742463776;0.953980997337078
1129;0.952071364491499;0.95208118895257
1130;0.954496226937966;0.954496481948989
1131;0.962494692318791;0.96249494946675
1132;0.965079257385777;0.965089330923143
1133;0.962376906563161;0.962377163679651
1134;0.966959268374929;0.96694968468809
1135;0.968845740705649;0.968845999550406
1136;0.964524675342475;0.96452493303278
1137;0.971746898360035;0.971757080247063
1138;0.978856912352521;0.978847112020315
1139;0.980471190017136;0.980471451967843
1140;0.97671507936119;0.976705334209335
1141;0.977617629017943;0.977617890206269
1142;0.981841303581765;0.981831466310328
1143;0.980004140268154;0.98000440209408
1144;0.985061708925037;0.985061972102184
1145;0.986364902557679;0.986365166082999
1146;0.986050368618767;0.98606079501594
1147;0.991514144161663;0.991514409062695
1148;0.989972336197363;0.989972600686474
1149;0.993611123044509;0.99362169012098
1150;0.993500088144953;0.993490060369423
1151;0.994654759904857;0.994655025644962
1152;0.995881977702851;0.99588224377083
1153;0.994611137621236;0.994611403349687
1154;0.992236278217143;0.992236543311107
1155;0.990567637599967;0.990567902248123
1156;0.996876427376344;0.996876693710008
1157;0.980213099989016;0.980213361870769
1158;0.98668999390091;0.986690257513083
1159;0.990855096442182;0.990855361167138
1160;0.991244818376186;0.991245083205264
1161;0.990249202229915;0.990249466792996
1162;0.984634569230537;0.984634832293567
1163;0.986628623408291;0.986628887004069
1164;0.983406599463329;0.983396856023455
1165;0.979790827256819;0.979791089025754
1166;0.98193072062803;0.981921017768314
1167;0.98129343573615;0.981303644929381
1168;0.980299256933568;0.980289597581773
1169;0.980982322123064;0.980982584210329
1170;0.983356880301254;0.983347170635867
1171;0.978057639846292;0.978048041299951
1172;0.984621426277569;0.984611702100412
1173;0.981379531548089;0.981379793741476
1174;0.986102085393023;0.986112355569477
1175;0.983308140645674;0.983308403354324
1176;0.978047551527317;0.978037979646511
1177;0.984976459148496;0.984976722302867
1178;0.985211318347042;0.985221548902406
1179;0.985584467577838;0.985584730894649
1180;0.988997137278955;0.988987368258716
1181;0.992560031625182;0.992570397350039
1182;0.988065113966437;0.988065377945999
1183;0.989736115769029;0.989746412798323
1184;0.998584761640745;0.998585028430822
1185;0.989056764643915;0.989057028888415
1186;0.985830828828104;0.985821154397306
1187;0.997524719865632;0.997514816678078
1188;0.999049578134106;0.999049845048367
1189;1.00295340744723;1.00296394567639
1190;1.00640697194777;1.0064072408277
1191;1.01468726417482;1.01467703429898
1192;1.01750252206006;1.01751334803674
1193;1.0166197377728;1.01662000938125
1194;1.02177320850545;1.02177348149074
1195;1.0279827742299;1.02798304887419
1196;1.03685718087192;1.03685745788717
1197;1.03611313606648;1.03611341288294
1198;1.04394901165594;1.04396036671591
1199;1.05704540902558;1.05704569143448
1200;1.05687133394802;1.05687161631042
1201;1.05925195168669;1.05924084879386
1202;1.06650898524646;1.06650927018373
1203;1.08484093806294;1.08482929712601
1204;1.07633458335347;1.07632313232499
1205;1.08523414544528;1.08523443538532
1206;1.08460046477426;1.08460075454499
1207;1.09891152267534;1.09891181626954
1208;1.09169357000277;1.09168180940689
1209;1.09290244528113;1.09289066419825
1210;1.10370079301819;1.10371339499594
1211;1.11615995975967;1.11614767782304
1212;1.11116487261815;1.1111776315242
1213;1.11292463011461;1.11291243222512
1214;1.13649224794931;1.13649255158388
1215;1.13084341621189;1.13084371833727
1216;1.14187432265377;1.14187462772626
1217;1.1448425309975;1.144842836863
1218;1.14065391891063;1.14065422365706
1219;1.15150610732558;1.15150641497137
1220;1.14731983959215;1.14732014611951
1221;1.15980906284567;1.159822891562
1222;1.14097783531716;1.14097814015014
1223;1.15306357284426;1.15306388090616
1224;1.15170956314216;1.15170987084231
1225;1.15640356960826;1.15639046444921
1226;1.15592228756921;1.15590919967478
1227;1.16351082754488;1.16351113839796
1228;1.16547568698182;1.16546239188746
1229;1.1655366656649;1.16553697705921
1230;1.16308624439396;1.1630865551336
1231;1.17316458018971;1.17315112602006
1232;1.16201375877482;1.16201406922792
1233;1.1693225192401;1.1693364970679
1234;1.16644568648929;1.16643240635301
1235;1.17601816955376;1.17600467423121
1236;1.16944938368793;1.16944969612759
1237;1.17584981006178;1.17585012421144
1238;1.17561901559478;1.17560554815636
1239;1.17817532748239;1.17817564225335
1240;1.18001731064647;1.18003149867732
1241;1.18278082052437;1.18278113652577
1242;1.18965286802661;1.1896390984589
1243;1.19327331370626;1.19327363251093
1244;1.2019330892396;1.20193341035788
1245;1.19162151696009;1.1916077199262
1246;1.20006152971575;1.20006185033401
1247;1.21649861451847;1.21651363793499
1248;1.21140771716128;1.21142261010949
1249;1.21241466496896;1.21241498888758
1250;1.21811266926917;1.21809827680143
1251;1.21835839786874;1.21835872337534
1252;1.21927998779056;1.21926558010637
1253;1.23584150901715;1.23585696948165
1254;1.22955060727233;1.22955093576913
1255;1.24569605924714;1.24569639205749
1256;1.24949118693417;1.24949152075846
1257;1.24770653799391;1.2477068713414
1258;1.25472023649613;1.25470500909874
1259;1.26787609848041;1.26787643721656
1260;1.27014232510025;1.27012673029564
1261;1.28837187947122;1.28837222368319
1262;1.29027105224442;1.29028782684457
1263;1.29181049863163;1.29181084376229
1264;1.29006035223392;1.29004428641646
1265;1.29525583716838;1.29525618321953
1266;1.29990455951819;1.29990490681133
1267;1.30600770056802;1.30599125152844
1268;1.31868594782724;1.31866918145632
1269;1.32198643979981;1.32198679299252
1270;1.33736377132356;1.33738172181721
1271;1.34651401076476;1.34649654343888
1272;1.35118992593765;1.3511902869326
1273;1.3682139018705;1.36823265936806
1274;1.38292778656862;1.38290937442412
1275;1.39160747183835;1.3916268546677
1276;1.40246954917796;1.4024506231201
1277;1.41496342458559;1.4149638026188
1278;1.40998532047396;1.41000519042633
1279;1.42024116645722;1.42022177639121
1280;1.42819518977341;1.42817558763473
1281;1.43669559840536;1.43669598224471
1282;1.43946446679745;1.43944456693866
1283;1.45868942636047;1.45866899430735
1284;1.47434512046834;1.47434551436645
1285;1.461843956803;1.46184434736119
1286;1.46163440873973;1.46161391755157
1287;1.48295884471085;1.48293775372989
1288;1.4847529248234;1.48475332150214
1289;1.49222254087265;1.49220119970235
1290;1.48728632841651;1.48730831444315
1291;1.48024397142508;1.4802229909119
1292;1.4936806228378;1.49368102190174
1293;1.49963858906068;1.49961706645183
1294;1.50055222801307;1.50053068715952
1295;1.49333946970388;1.49331814547365
1296;1.48456650861365;1.48454544452059
1297;1.49521197531188;1.49521237478494
1298;1.50650918592684;1.50650958841817
1299;1.48690317099137;1.48688206379636
1300;1.48279601067036;1.48279640682628
1301;1.48997696879411;1.48995578925506
1302;1.47039760915694;1.47039800200039
1303;1.49735148438741;1.49737366092837
1304;1.49043777957775;1.49045974582025
1305;1.47086228484721;1.47086267781482
1306;1.47742368971989;1.4774240844405
1307;1.46630951464146;1.46630990639271
1308;1.48075285357447;1.48077450727068
1309;1.470031820598;1.47003221334373
1310;1.46919291631249;1.46917239683641
1311;1.46560276572885;1.46560315729128
1312;1.46025343353948;1.46023317995775
1313;1.4729478265673;1.47294822009209
1314;1.47069571548499;1.47069610840809
1315;1.46489289984651;1.46491404511948
1316;1.46893953280095;1.46891906437203
1317;1.45791540134604;1.45791579085465
1318;1.46016687561385;1.46014666749487
1319;1.46550619979425;1.46552733393677
1320;1.45024366113611;1.45026435444846
1321;1.45283348195823;1.45283387010911
1322;1.45453046995084;1.45451044695169
1323;1.44671928879709;1.44671967531446
1324;1.42919970721506;1.4291803955048
1325;1.44955444058349;1.44955482785832
1326;1.46293675443289;1.46295776629603
1327;1.45192317056911;1.45190325412541
1328;1.46457172841426;1.46459277307611
1329;1.4453472801203;1.4453476662711
1330;1.44283320199752;1.44285361904197
1331;1.45173207478107;1.45171219044221
1332;1.44241814766346;1.44243853994655
1333;1.45126239111608;1.45128302525876
1334;1.44351760185539;1.44353801190405
1335;1.45427323679733;1.45425330857365
1336;1.44344931735472;1.44342969399232
1337;1.44660008696289;1.44662056400551
1338;1.44824967178551;1.44825005871174
1339;1.44967850533902;1.44967889264699
1340;1.44545454981362;1.4454348969683
1341;1.44091766835252;1.44093796100229
1342;1.45125645501421;1.45125684274376
1343;1.45239887811525;1.45239926615002
1344;1.45386463990748;1.45386502833385
1345;1.45217364604029;1.45217403401488
1346;1.45068744046696;1.45068782804449
1347;1.45808123383771;1.45806127730859
1348;1.4546327152738;1.45461286018038
1349;1.46077086591192;1.46075084750934
1350;1.46627689517157;1.4662772869141
1351;1.45115898510562;1.45117950207968
1352;1.46955700914312;1.46955740176199
1353;1.45796191433212;1.45796230385316
1354;1.4604136603407;1.46043441891356
1355;1.46803723859388;1.46803763080673
1356;1.47621275918155;1.47621315357863
1357;1.47737950314151;1.47740072361712
1358;1.47457367526695;1.47459480983134
1359;1.49741739718513;1.49743917915565
1360;1.47554413013751;1.47554452435595
1361;1.47034943061509;1.47034982344568
1362;1.48048596515281;1.48048636069156
1363;1.48562963543311;1.48560901086611
1364;1.48502847449478;1.48502887124714
1365;1.49439347691677;1.49441513476163
1366;1.50766773174778;1.50766813454863
1367;1.50024057902634;1.50021956740598
1368;1.50904453053597;1.50904493370466
1369;1.52071117823185;1.52068959620655
1370;1.52659105764322;1.52659146549978
1371;1.52522581130784;1.52524832609062
1372;1.51554646586296;1.51556869226951
1373;1.52536727068829;1.52538977730919
1374;1.52902315524184;1.52900136538053
1375;1.5354629692784;1.53548575974341
1376;1.53057438554088;1.53055256324515
1377;1.53012533041198;1.53012573921279
1378;1.53548956137759;1.53548997161155
1379;1.54068428411096;1.54066218821371
1380;1.54920164472475;1.54922481022377
1381;1.54119737451633;1.54122029734362
1382;1.55144348759062;1.55142109746705
1383;1.53748246734588;1.53746048801969
1384;1.54229160237903;1.54226949001132
1385;1.53235853779452;1.53238117720048
1386;1.54071739710507;1.54074027603929
1387;1.53331639572145;1.53331680537481
1388;1.55020072376057;1.55022387081346
1389;1.5307140108042;1.53069226118644
1390;1.52653395349793;1.52653436133924
1391;1.52893349266115;1.52891180544579
1392;1.52182405862822;1.52182446521119
1393;1.52109511361667;1.52107366141548
1394;1.51807660750799;1.51805524667239
1395;1.51344601224821;1.51344641659283
1396;1.51367383953129;1.51369587403457
1397;1.52323682010221;1.52321532888512
1398;1.51069268038474;1.51069308399376
1399;1.51986181651373;1.51986222257245
1400;1.52239648851588;1.52241875369561
1401;1.52425730407896;1.52427961786148
1402;1.52955268166292;1.52957514396276
1403;1.515437113031;1.51543751790758
1404;1.51912220987551;1.51910087298436
1405;1.51471741858769;1.51469621161488
1406;1.51055338802514;1.51057528007127
1407;1.51561276371132;1.51559154173459
1408;1.50437935674137;1.5043584562032
1409;1.49438584015816;1.49438623941051
1410;1.51584036168224;1.51584076666655
1411;1.50469165648197;1.50469205848771
1412;1.5145801506962;1.51460212810697
1413;1.52195342374773;1.52197560865257
1414;1.50990158789255;1.50988056208228
1415;1.51795952579631;1.5179815855541
1416;1.52056072771767;1.52058285750638
1417;1.51737145997985;1.51737186537322
1418;1.50688834301583;1.50688874560845
1419;1.52176224842637;1.52178439818673
1420;1.50839450713342;1.50841626823489
1421;1.51673959582912;1.51674000105368
1422;1.50957496490023;1.509596750298
1423;1.49924613773002;1.49922545301792
1424;1.50543837321562;1.50543877542085
1425;1.52062255683755;1.52062296309952
1426;1.52360153551232;1.52360194257017
1427;1.51473406255971;1.51475597236611
1428;1.50705596328715;1.50703508342489
1429;1.51158184913017;1.51158225297674
1430;1.51634675293806;1.51632562148287
1431;1.52902281380812;1.52902322231437
1432;1.52165162257589;1.52163035068748
1433;1.53334989491658;1.53335030457888
1434;1.54263494872149;1.54265763268476
1435;1.52266223158207;1.52266263838897
1436;1.53898050876013;1.53898091992675
1437;1.54527864490681;1.54530139225135
1438;1.54127011953022;1.54124831767816
1439;1.56419259781581;1.5641930157183
1440;1.57195426717884;1.57195468715501
1441;1.57773863237971;1.57773905390127
1442;1.57220932543202;1.57220974547633
1443;1.61078198939873;1.61075818141901
1444;1.60109893528234;1.60109936304503
1445;1.59997518798696;1.59997561544942
1446;1.60109838757794;1.60109881534048
1447;1.61254329189933;1.61254372271959
1448;1.60846970396425;1.60844598829367
1449;1.62302896568411;1.62302939930581
1450;1.60642758966085;1.60645209456236
1451;1.63450845878834;1.63448397614391
1452;1.63061272579207;1.63061316143991
1453;1.65067068700461;1.6506965338958
1454;1.64843860679944;1.64846437974986
1455;1.64353849833571;1.64351376067622
1456;1.64704290135584;1.6470433413933
1457;1.6491643198225;1.64916476042674
1458;1.67123823254609;1.67123867904777
1459;1.6454088734652;1.6454093130661
1460;1.65864033108466;1.65861515577294
1461;1.66766610197275;1.66766654752008
1462;1.64853168034293;1.64850682257483
1463;1.64468072568283;1.64465598934273
1464;1.65004347450111;1.65004391534023
1465;1.64875882976909;1.64875927026499
1466;1.66178789943551;1.66178834341236
1467;1.65480617034903;1.65480661246059
1468;1.67815170691649;1.67812596687329
1469;1.65781469064986;1.6578151335652
1470;1.66646590981753;1.6664663550442
1471;1.65535663448507;1.6553570767437
1472;1.65395035028902;1.65395079217193
1473;1.64082963506442;1.64080505773763
1474;1.65487261993593;1.65489850442829
1475;1.66432626459674;1.66432670925177
1476;1.64654658932645;1.64652185113129
1477;1.65694447246014;1.65691942211395
1478;1.64747371693657;1.64744895864684
1479;1.66058527766177;1.6606113191981
1480;1.64063832036419;1.64063875869055
1481;1.65203724362619;1.6520630121226
1482;1.63479851259695;1.63477415263107
1483;1.67135238941586;1.6713269218939
1484;1.64935775820362;1.64938343229382
1485;1.65649999421479;1.65652588538143
1486;1.65593435985688;1.65596022968221
1487;1.65931483811348;1.65931528142961
1488;1.65031863573088;1.65031907664351
1489;1.63537446758601;1.6353996934302
1490;1.6405363524738;1.64051184950573
1491;1.63992591441239;1.63995127241155
1492;1.65482135283216;1.65482179494777
1493;1.65052760211096;1.6505532789678
1494;1.6359039580587;1.63587960868996
1495;1.64656196388201;1.64658751148241
1496;1.6446095868712;1.64461002625856
1497;1.64113820314939;1.6411386416093
1498;1.62754002404176;1.62751593885452
1499;1.63356981148518;1.63354554924982
1500;1.64155905016611;1.64155948873846
1501;1.64422690449977;1.64422734378488
1502;1.64000415212976;1.64000459028669
1503;1.64719351959919;1.64716886072584
1504;1.61654474314138;1.6165451750307
1505;1.63003759166629;1.63001345471072
1506;1.63961524103896;1.63961567909199
1507;1.64709160233808;1.64711712602711
1508;1.64637249085397;1.64637293071232
1509;1.64625350194279;1.64622889073243
1510;1.64468155213316;1.64468199153975
1511;1.65938845566925;1.65936345293839
1512;1.64829310861904;1.64829354899052
1513;1.64811666410291;1.648142200619
1514;1.65370370635884;1.6536788853566
1515;1.65200818947258;1.65200863083661
1516;1.67427720843446;1.67427765574806
1517;1.681650435154;1.68165088443749
1518;1.67435728502282;1.67435773235781
1519;1.68691201253409;1.68691246322331
1520;1.67520728628239;1.67520773384448
1521;1.71333897954068;1.71333943729034
1522;1.69280982642095;1.69281027868588
1523;1.70326957267973;1.70327002773917
1524;1.71744039513094;1.71744085397637
1525;1.70190353484331;1.70193071373836
1526;1.7234663914559;1.72343945005979
1527;1.7251316832026;1.72515959687413
1528;1.72545150750473;1.72545196849047
1529;1.75229203658287;1.75229250473955
1530;1.74021248263397;1.74021294756338
1531;1.74897952793463;1.74897999520632
1532;1.75652226189032;1.75652273117719
1533;1.76717334437936;1.76717381651185
1534;1.7474506273305;1.74742294763269
1535;1.76798455087228;1.7679850232215
1536;1.76456286904967;1.76459203630435
1537;1.76166790801078;1.76166837867239
1538;1.77060301607785;1.77057460300864
1539;1.7692694147952;1.76924104759254
1540;1.77458385722342;1.77461334298126
1541;1.77196701970387;1.77199641658752
1542;1.7806450397101;1.7806455154418
1543;1.79526313607133;1.79529329930005
1544;1.79089323894391;1.7908937174136
1545;1.79046101142672;1.79046148978093
1546;1.78186301380709;1.7818634898642
1547;1.76996590049848;1.76993753153157
1548;1.78360296301688;1.78357415404955
1549;1.79513088908285;1.79516103243262
1550;1.79810320355322;1.79810368394918
1551;1.78857164041351;1.7886015607486
1552;1.80749154239249;1.80749202529672
1553;1.79346633649697;1.79349641472356
1554;1.79210022764423;1.7921007064364
1555;1.78778909541704;1.78776016668901
1556;1.78892778848537;1.78895770896232
1557;1.79136391054036;1.79133486958553
1558;1.7765679508257;1.7765974581591
1559;1.78783136105754;1.7878318387092
1560;1.79537277460206;1.79540290045834
1561;1.7991566947184;1.79915717539583
1562;1.791282630715;1.79128310928873
1563;1.81894381193527;1.81897472113291
1564;1.80443257911685;1.80443306120382
1565;1.79793373331538;1.79793421366607
1566;1.79668860002127;1.7966890800393
1567;1.80776627551823;1.80773671717111
1568;1.80506466726668;1.80509510016216
1569;1.81179439640479;1.811825052902
1570;1.80442690545139;1.80442738753685
1571;1.80522800528106;1.80519853820621
1572;1.81340168999364;1.81337195513655
1573;1.78824032875031;1.7882114217208
1574;1.812742822379;1.8127433066862
1575;1.79760812500683;1.79763829621604
1576;1.81503881837199;1.81500903649526
1577;1.81224006202787;1.81221037437493
1578;1.80908760174385;1.80905801979356
1579;1.83671967844283;1.83675115923771
1580;1.81901720230278;1.8190480822458
1581;1.82322530605087;1.82322579315866
1582;1.80515103806069;1.80512159210299
1583;1.81586984140813;1.81587032655078
1584;1.81729336292963;1.81729384845259
1585;1.82640424363918;1.82640473159629
1586;1.79651018358906;1.79654030112481
1587;1.81286327899001;1.81289394151164
1588;1.80915144405448;1.80912187504458
1589;1.81704994912291;1.81705043458084
1590;1.83578119961937;1.83575074924555
1591;1.81499656874257;1.81502729755402
1592;1.84311232171632;1.84311281413729
1593;1.85130065502552;1.85133261294397
1594;1.83010029490574;1.8301315294451
1595;1.84529960765238;1.84533135785843
1596;1.84972461846867;1.84972511265624
1597;1.84957309341134;1.84960498735449
1598;1.84982801901679;1.84979710697539
1599;1.86582699057249;1.8658274890621
1600;1.85534226441801;1.85534276010644
1601;1.86502598667156;1.86505840721345
1602;1.8431915514602;1.84316086677033
1603;1.85979613218541;1.85982837054091
1604;1.84655297277933;1.84652217708832
1605;1.86803641138753;1.86803691046743
1606;1.85224583681553;1.85227781319024
1607;1.86548611251286;1.86551854323955
1608;1.8807302264742;1.88076318443538
1609;1.87488953461537;1.87485778323769
1610;1.89475283276568;1.89472040049961
1611;1.88197232104502;1.8819403289793
1612;1.88491133662046;1.8849118402088
1613;1.89205220062796;1.89208554969976
1614;1.88881255765619;1.88884579281052
1615;1.91224372464357;1.91221068974386
1616;1.90562691439964;1.90562742352252
1617;1.89750050738424;1.897501014336
1618;1.92449983761121;1.92446637641528
1619;1.93107608921605;1.93104239772999
1620;1.93007923503609;1.93011392349197
1621;1.93191910543648;1.9319196215838
1622;1.93850586677133;1.93854085559358
1623;1.9665038658886;1.96653986469371
1624;1.95717016494568;1.95717068783928
1625;1.94649706593299;1.94649758597508
1626;1.96734494869563;1.96730997290956
1627;1.97939886367373;1.97939939250613
1628;1.98013256219658;1.980133091225
1629;1.96370331627895;1.9636684716125
1630;1.99753473188244;1.99749866725923
1631;1.98210948024149;1.98211000979808
1632;1.99262254035766;1.992623072723
1633;1.98378120919061;1.98378173919384
1634;1.98964968270788;1.98965021427897
1635;2.00871358847396;2.00871412513832
1636;1.98888906609241;1.98892588047251
1637;1.98252184343578;1.98255842420766
1638;2.00985554847373;2.00989313757956
1639;2.01214963194409;2.01211303402207
1640;2.00592246099001;2.00588609075992
1641;2.01083364999293;2.01083418722371
1642;2.01197270713357;2.01193611517053
1643;2.0085863612434;2.00858689787377
1644;2.00650118227688;2.00650171835016
1645;2.01170482070784;2.01174247998562
1646;2.01183455957026;2.01187222401716
1647;2.01181395003573;2.01185161409679
1648;1.99041406984553;1.99037826161862
1649;2.00628764364884;2.00632510340217
1650;1.98804110988155;1.98800538670745
1651;2.01368251853708;2.01368305652898
1652;2.02175669957665;2.02171974422795
1653;1.97595313126195;1.97595365917376
1654;2.01336421833261;2.01336475623948
1655;2.01556246214458;2.01556300063874
1656;2.0370703261936;2.03707087043398
1657;2.02319247610971;2.02319301664237
1658;2.03858949737986;2.03859004202611
1659;2.01898620878204;2.01898674819091
1660;2.03416402170404;2.03416456516795
1661;2.01374740929913;2.01374794730837
1662;2.0326268944703;2.03262743752354
1663;2.05062739175988;2.05062793962227
1664;2.03392748619777;2.03389007184935
1665;2.05218020550844;2.05221939834644
1666;2.06421230981233;2.06421286130418
1667;2.04425079182272;2.04425133798149
1668;2.03853111901262;2.03853166364327
1669;2.04947280656897;2.04951190124437
1670;2.04172875227499;2.04176755531687
1671;2.05355307175555;2.05355362039959
1672;2.02742607979901;2.02742662146276
1673;2.06017171021723;2.06017226062956
1674;2.067998864025;2.0679994165285
1675;2.0592478309641;2.0592483811296
1676;2.08530486289148;2.08526550528351
1677;2.09380347269947;2.09384427588956
1678;2.110557651799;2.11055821567285
1679;2.08342987026087;2.08343042688704
1680;2.0912257392373;2.09118614999862
1681;2.10029321205643;2.10029377318795
1682;2.10206971355623;2.10207027516237
1683;2.0928512235096;2.09285178265286
1684;2.09965911596694;2.0997001577588
1685;2.09528356501192;2.09524381227376
1686;2.11809098082606;2.11813274510102
1687;2.11408642760353;2.11408699242016
1688;2.13103216981463;2.13103273915862
1689;2.1185737598734;2.1185743258889
1690;2.13940861884528;2.13936715220526
1691;2.1157295751801;2.11573014043572
1692;2.13303196245216;2.13303253233043
1693;2.15419445507428;2.1541950306065
1694;2.15276069356503;2.1528038436938
1695;2.15669766283424;2.15669823903524
1696;2.18178327868479;2.18174012794728
1697;2.15492453814345;2.15492511387073
1698;2.18105976300592;2.18106034571569
1699;2.19328710984118;2.19333190106795
1700;2.20190283811194;2.20190342639032
1701;2.21643931637172;2.21648505723233
1702;2.22829011323777;2.22833634407653
1703;2.22169459709841;2.22164982402254
1704;2.21126323700807;2.21121888340051
1705;2.22359993667426;2.22355508065272
1706;2.23786877347837;2.23786937136571
1707;2.23271911302812;2.23276554088271
1708;2.25427654784535;2.25427715011632
1709;2.2260310499755;2.22607720781718
1710;2.24458141441657;2.24458201409731
1711;2.24105365609279;2.24100807038096
1712;2.2415937618914;2.24159436077394
1713;2.25165093988666;2.25165154145615
1714;2.28049078785273;2.28049139712731
1715;2.2701865228935;2.27013972323549
1716;2.28222446108649;2.28217715713029
1717;2.27742104820121;2.27742165665566
1718;2.26812974927864;2.26813035525074
1719;2.30333822509491;2.3033388404736
1720;2.30301887357304;2.30297068367253
1721;2.30621630852893;2.30621692467655
1722;2.27423145537793;2.27427966495742
1723;2.28726806507744;2.28731682918745
1724;2.28651090205606;2.28655963786563
1725;2.29818001081885;2.29818062481943
1726;2.29999071003399;2.29994262477825
1727;2.307573258717;2.30757387522715
1728;2.28697699429021;2.2869776052977
1729;2.29747979502755;2.2974318034334
1730;2.32513008628777;2.32518049615467
1731;2.32344122077006;2.32339212308597
1732;2.30553136917542;2.30553198514005
1733;2.34350369662086;2.34345373330982
1734;2.31131676388572;2.31131738139603
1735;2.30561535762104;2.30561597360811
1736;2.30550890272088;2.3055095186795
1737;2.32890128447436;2.32895188740864
1738;2.32042447860566;2.32037547864722
1739;2.32021291251157;2.32016391702074
1740;2.36222990565465;2.36217910342521
1741;2.33541570206687;2.33541632601564
1742;2.35328349207635;2.35333517703681
1743;2.32416840773731;2.32416902868116
1744;2.3276877557345;2.3276384186476
1745;2.35916171124035;2.35921366783957
1746;2.32743783729092;2.32738850121226
1747;2.33976597006549;2.33981709082989
1748;2.36335373590288;2.36335436731581
1749;2.344463003794;2.34441292370542
1750;2.3423026218415;2.34235386794593
1751;2.35606771398982;2.35606834345615
1752;2.34659363705485;2.34654344990894
1753;2.36520058316223;2.36514958664774
1754;2.36139868961989;2.36139932051049
1755;2.41774877431292;2.41774942025846
1756;2.38103937273564;2.38104000887361
1757;2.40531994960338;2.40532059222834
1758;2.42319845928468;2.42314488671157
1759;2.38983646496108;2.38983710344935
1760;2.43116044605005;2.43110650690678
1761;2.4107037316298;2.41070437569313
1762;2.40140090283099;2.40145481891295
1763;2.43139380311801;2.43139445270908
1764;2.4486134538301;2.44861410802171
1765;2.43796740638281;2.43796805773013
1766;2.44628845277397;2.44628910634441
1767;2.46535032829617;2.46529480814731
1768;2.45951780264516;2.45951845975006
1769;2.46770479818528;2.46764915830206
1770;2.46707894294446;2.46713588183043
1771;2.49042223714719;2.49048025909336
1772;2.48343566876743;2.48343633226243
1773;2.4708246899898;2.47076888185176
1774;2.50859716823036;2.50853962351597
1775;2.49843741637997;2.49849583788397
1776;2.51481723642546;2.51481790830462
1777;2.52225678649507;2.52225746036184
1778;2.55275154597049;2.55281254251591
1779;2.53268802844705;2.5326293303655
1780;2.57456195501304;2.57456264285408
1781;2.50260096632286;2.50265962459515
1782;2.5329211572138;2.53286242587472
1783;2.58244887626818;2.58244956621635
1784;2.55989393387667;2.5598339222702
1785;2.58333013630186;2.58326900656525
1786;2.55674677315558;2.55674745623697
1787;2.58148454525411;2.58148523494465
1788;2.57345114363706;2.57339045915445
1789;2.58426665673471;2.58426734716854
1790;2.55891650628144;2.55891718994251
1791;2.59958035070608;2.59964369781596
1792;2.58446895057551;2.58446964106338
1793;2.62711788066625;2.62705458141373
1794;2.62260757543932;2.62260827611662
1795;2.59773239561366;2.59773308964511
1796;2.60749082238477;2.6074284447244
1797;2.61351541870945;2.61351611695762
1798;2.63790731531989;2.6378434477745
1799;2.62270755904107;2.62270825974509
1800;2.62265768127785;2.62272223089205
1801;2.6411255582627;2.64112626388742
1802;2.65887368917588;2.65887439954233
1803;2.67859629771993;2.67859701335564
1804;2.63973318182403;2.63973388707675
1805;2.66140577904385;2.6614064900868
1806;2.68063477406977;2.6806354902501
1807;2.70659839595123;2.70653105249746
1808;2.67299236888116;2.6730594828876
1809;2.67299580573779;2.67293011332551
1810;2.72776259090941;2.72783248905191
1811;2.71099461344409;2.71092700939258
1812;2.71051941426833;2.71052013843288
1813;2.77022657235197;2.7701559442874
1814;2.75116535637258;2.75116609139643
1815;2.72115167415252;2.72108351819896
1816;2.73931920227392;2.73925011763948
1817;2.77181879543434;2.77189103359107
1818;2.77791035352063;2.77791109568989
1819;2.77145942814301;2.77146016858879
1820;2.7670288039978;2.76702954325986
1821;2.74005353028772;2.74005426234285
1822;2.778109553291;2.77803842057051
1823;2.7480210679129;2.74802180209669
1824;2.79319756467133;2.79319831092485
1825;2.79456837560183;2.79464188987918
1826;2.82219013173095;2.82211666442577
1827;2.78171618577865;2.78171692896471
1828;2.7399906086399;2.73992135724594
1829;2.77685107088457;2.77692370723574
1830;2.78541024160405;2.78541098577705
1831;2.81766582186995;2.81774062245244
1832;2.79640292155854;2.79640366866843
1833;2.81532593717187;2.81532668933739
1834;2.83758830967941;2.83751393569498
1835;2.80084766757084;2.80084841586822
1836;2.76803300136101;2.76796222286374
1837;2.81550458600387;2.81550533821711
1838;2.80786697151355;2.80794134171043
1839;2.87222570972757;2.8722264770949
1840;2.83110452200877;2.8310304131138
1841;2.79521030499221;2.79521105178347
1842;2.84305906418506;2.84298429884702
1843;2.8409049365929;2.84098112320743
1844;2.82779636312811;2.82787186479573
1845;2.88129723622183;2.88129800601277
1846;2.87799948726405;2.87800025617395
1847;2.83627498647718;2.83627574423961
1848;2.86972128802967;2.86972205472789
1849;2.87987796921661;2.87987873862838
1850;2.8630864695898;2.86301053372152
1851;2.88560940980883;2.88568811124178
1852;2.85578222883833;2.85585933331675
1853;2.87858051193266;2.87858128099779
1854;2.93097991558903;2.93098069865361
1855;2.92162438356392;2.921625164129
1856;2.92436954294193;2.92445043519605
1857;2.92479271838352;2.92487364869072
1858;2.9167391800348;2.91666024080888
1859;2.9424157476816;2.94249768152717
1860;2.94340996495869;2.94341075134418
1861;2.96478334596968;2.96478413806546
1862;2.95740338847851;2.95748620112808
1863;2.98725126813005;2.98725206622855
1864;2.98267467596853;2.9826754728443
1865;2.99131535722921;2.9913161564135
1866;2.99292921270884;2.9929300123243
1867;2.99749232038688;2.99757746261486
1868;2.98800487755263;2.98792185612412
1869;3.04735511656391;3.04735593072024
1870;3.03694517236063;3.03685936234432
1871;3.04983889216778;3.0498397069877
1872;3.01905709374837;3.01914354251788
1873;3.06215798670884;3.06215880482002
1874;3.03639156824804;3.03639237947526
1875;3.03761353216546;3.03770109304356
1876;3.04135516459594;3.04126900174384
1877;3.07087415843788;3.07087497887776
1878;3.06999612035811;3.06990828407326
1879;3.02646769673713;3.02646850531301
1880;3.04476096690286;3.04476178036611
1881;3.12711930630675;3.12712014177353
1882;3.11676271763281;3.11676355033265
1883;3.11594754411837;3.11594837660041
1884;3.07409316419314;3.07400498450908
1885;3.06875613886905;3.06875695874305
1886;3.11367276924184;3.11367360111613
1887;3.1325151121417;3.13251594905007
1888;3.13974705334743;3.13984081712852
1889;3.17851180653134;3.17851265572856
1890;3.17832742229704;3.17842353365191
1891;3.16911611746216;3.16902223922794
1892;3.17272059022715;3.17272143787715
1893;3.15064780496743;3.15074231566566
1894;3.17404636450085;3.17404721250505
1895;3.17242518068077;3.17242602825185
1896;3.22880184250752;3.22880270514064
1897;3.20767698935056;3.20758067931428
1898;3.21214949170806;3.21215034989221
1899;3.20504335442953;3.20504421071514
1900;3.19111642002375;3.19121350652317
1901;3.20725748607171;3.20716111794756
1902;3.22750206404201;3.22760140987866
1903;3.20976049722752;3.20966393576906
1904;3.20633706466731;3.20624068882884
1905;3.24261118755573;3.24251258725085
1906;3.24379163388446;3.24379250052237
1907;3.1694367470559;3.16953266935033
1908;3.25665833646398;3.25675960915405
1909;3.26036095590709;3.26046248027592
1910;3.25471459632721;3.25471546588339
1911;3.25318835349819;3.25318922264661
1912;3.28413996324433;3.28424303573425
1913;3.27881371141062;3.27881458740532
1914;3.31360030153202;3.31370527028544
1915;3.31984060308486;3.31984149004064
1916;3.33399242710719;3.33399331784389
1917;3.37409577587201;3.37420466915116
1918;3.37851928715721;3.37862848957818
1919;3.37709975583483;3.37699243155793
1920;3.38326712805874;3.38315938494556
1921;3.39371699327679;3.39371789997
1922;3.41461073100706;3.41450092306051
1923;3.40554099874919;3.40554190860139
1924;3.46471388304376;3.464600762793
1925;3.3792590343868;3.3792599372173
1926;3.46401647667803;3.46390334916335
1927;3.4014972331874;3.40149814195924
1928;3.48200283343277;3.48200376371315
1929;3.46306768999887;3.46306861522037
1930;3.46008716065776;3.46020199369783
1931;3.45779078491051;3.45779170872219
1932;3.51550635458006;3.5155072938115
1933;3.41913661462932;3.41902622806409
1934;3.55644040479817;3.55644135496589
1935;3.48050251059997;3.48038805447498
1936;3.50535272578597;3.50535366230469
1937;3.49680357911682;3.49680451335148
1938;3.53817297917586;3.53817392446311
1939;3.52294221061494;3.5228248210809
1940;3.53157970787875;3.53146171092721
1941;3.51156301347956;3.51168158410929
1942;3.55319993566026;3.55320088496223
1943;3.58086248709473;3.58098582462949
1944;3.56900911673113;3.5688884768366
1945;3.54602470031279;3.54602564769777
1946;3.6346213809996;3.63449618493621
1947;3.59392709611656;3.59392805629954
1948;3.64078907188569;3.64079004458869
1949;3.64661042525672;3.64648430445716
1950;3.61296316652447;3.61283934027173
1951;3.62646802599764;3.62646899487451
1952;3.62770068178369;3.62757577653982
1953;3.64500500898066;3.64487887282318
1954;3.67071592358975;3.67058796242707
1955;3.67909705187164;3.67896847085542
1956;3.62644411640391;3.6264450852744
1957;3.65139039156617;3.65139136710151
1958;3.73992075770745;3.73992175689528
1959;3.68159298532714;3.68146409754853
1960;3.68390312414496;3.68390410836667
1961;3.64767212606958;3.64767310061152
1962;3.72130392917796;3.72117213346464
1963;3.7922052997248;3.7922063128814
1964;3.73337834165733;3.73337933909724
1965;3.67217174660802;3.67217272769548
1966;3.71706897400662;3.71706996708919
1967;3.77934990895713;3.77948807033104
1968;3.79447728703143;3.79447830079503
1969;3.77751884011224;3.77751984934509
1970;3.79664731100909;3.79664832535245
1971;3.84559909121537;3.84560011863709
1972;3.83608152109098;3.83608254596991
1973;3.87581097282663;3.8759564772334
1974;3.85039048272026;3.85024890432907
1975;3.90080676612346;3.90066140355808
1976;3.93164713431671;3.93149941644467
1977;3.90342434471982;3.90327870844633
1978;3.93775041992404;3.93775147196567
1979;3.93148125411807;3.93133342981405
1980;3.90705212103864;3.90720024563324
1981;3.92017063645239;3.92031979365383
1982;3.87678812200054;3.87678915775498
1983;3.98704931454156;3.98689710240615
1984;3.93364670413626;3.93379700564134
1985;3.88817826161736;3.88817930041488
1986;3.90882420297982;3.90882524729328
1987;3.98272834177852;3.98257629460331
1988;4.00892266307785;4.00892373413444
1989;3.94266072539686;3.94281191819358
1990;4.04414388520936;4.04398696657586
1991;3.99789277251275;3.9978938406225
1992;3.98585994236052;3.98570744503452
1993;4.01945038015201;4.01929524962775
1994;4.08388914827245;4.08389023935769
1995;3.99765162725383;3.99780730748569
1996;4.09391474093529;4.09391583469906
1997;4.04660630237174;4.0466073834962
1998;4.04833283559772;4.04833391718345
1999;4.08063159493647;4.08047142081828
2000;4.03973547603555;4.03973655532434
2001;4.06533116774951;4.06533225387665
2002;4.07301345618236;4.07317535510677
2003;4.17894227883571;4.17894339531612
2004;4.15185549415343;4.15185660339712
2005;4.17708836899548;4.17725876239529
2006;4.12376592144686;4.12393205308119
2007;4.20059165258067;4.20076405982206
2008;4.13881131799544;4.13881242375414
2009;4.21590362923744;4.21590475559276
2010;4.12815285225522;4.12815395516632
2011;4.22594970602077;4.22595083506007
2012;4.24163340426453;4.24180943583385
2013;4.32021601361952;4.32039865907079
2014;4.28066855039641;4.28066969405485
2015;4.28567736402278;4.2854998199555
2016;4.30905188661307;4.30905303785463
2017;4.28051715118202;4.28051829480002
2018;4.35642465062869;4.35661062811128
2019;4.33474474430286;4.33474590240874
2020;4.28070318021303;4.28070432388072
2021;4.39060863596194;4.39079769883407
2022;4.33350553314321;4.33350669091801
2023;4.4127708006866;4.41277197963856
2024;4.38224293826591;4.38243144849874
2025;4.43383229581776;4.43383348039668
2026;4.43847593072662;4.43828484150214
2027;4.46676972855483;4.46677092193358
2028;4.44162016815972;4.44181403317064
2029;4.52790107675182;4.52770200769937
2030;4.48410673253246;4.484304429576
2031;4.43592447274055;4.43592565787844
2032;4.49957020258688;4.49976937953549
2033;4.54218857908992;4.54239159596779
2034;4.59554269671517;4.59575055866723
2035;4.65910165784691;4.65889046859173
2036;4.65684991563666;4.65663886716751
2037;4.72109101213067;4.72109227345598
2038;4.69924257447799;4.6992438299661
2039;4.76671855849033;4.76671983200587
2040;4.79957165599294;4.79979873678683
2041;4.81874217620656;4.81874346362116
2042;4.79755569184994;4.79778271974448
2043;4.85064040613602;4.8506417020728
2044;4.86955061549231;4.8695519164813
2045;4.8391538324026;4.83892525850609
2046;4.93567542694665;4.93591596994998
2047;5.04042517110492;5.04042651774616
